<Actel_Data_File>
    <format name="NVM File" version="01.00.00"/>
    <header>
        <die>
            M2S025
        </die>
        <family>
            SmartFusion2
        </family>
        <module>
            
        </module>
        <package>
            256 VF
        </package>
        <version>
            11.8.0.26
        </version>
    </header>
    <nvm>
        <region name="RISCV_BOOT" address="0x000000" retrieveAddressFromFile="false" size="16920" format="HEX" type="Data Storage" wordSize="8" numberWords="16920" memFile="C:\Users\REN\Desktop\199\workplace2\M2S025-Creative-Board\Example_Software_Projects\TickTackToe\Release\TickTackToe.hex" memType="INTELHEX" memFileTimeStamp="" clientType="public" program="true">
            6f00c0006f0000006f004003970200009382020373905230735000307350
            30307350203073504030970100209381817d17110020130101e36f101058
            130101f82320110023222100232431002326410023285100232a6100232c
            7100232e8100232091022322a1022324b1022326c1022328d102232ae102
            232cf102232e01032320110523222105232431052326410523285105232a
            6105232c7105232e8105232091072322a1072324b1072326c1072328d107
            232ae107232cf107f3221034232e510673252034f325103413060100ef10
            906f73101534b72200009382028073a00230832001000321410083218100
            0322c1008322010103234101832381010324c10183240102032541028325
            81020326c1028326010303274103832781030328c1038328010403294104
            83298104032ac104832a0105032b4105832b8105032cc105832c0106032d
            4106832d8106032ec106832e0107032f4107832f81071301010873002030
            130101fd23248102232291022328610113040500130b0500b704100013d5
            450123202103232e3101232671019384f4ff23261102232c4101232a5101
            1375f57f930b060093890600b3f4b40013d9f5016304050a9307f07f6304
            f51093943400b7068000b3e4d400935adb01b3ea9a0013143b00130a15c0
            130b000013d54901b70410009384f4ff1375f57fb3f43401938f0b0093d9
            f901630005109307f07f6300f516b707800093943400b3e4f40093d7db01
            b3e79700939f3b00130515c01307000093162b00b3e6e6009386f6ff9305
            e000334639013305aa4063eed514b745006093962600938585beb386b600
            83a6060067800600b3ea6401638e0a066380040413850400ef10c0509307
            55ff1307c001634ef702930ad001130485ffb38afa40b3948400b35a5b01
            b3ea9a0033148b00130ad0c0330aaa406ff0dff313050b00ef10004d1305
            05026ff01ffc930485fdb31a9b00130400006ff09ffdb3ea640163820a02
            938a0400130af07f130b30006ff09ff013040000130a0000130b10006ff0
            9fef13040000130af07f130b20006ff09feeb3e77401638e070663800404
            13850400ef10c046130755ff9307c00163cee7029307d001930f85ffb387
            e740b394f401b3d7fb00b3e79700b39ffb011306d0c03305a6406ff05fee
            13850b00ef100043130505026ff01ffc930785fdb397fb00930f00006ff0
            9ffdb3e7740163820702938704001305f07f130730006ff01feb930f0000
            13050000130710006ff01fea930f00001305f07f130720006ff01fe963e6
            57016390fa36636ef4359395fa01935614001317f40193da1a0033e4d500
            9397870013d88f013368f800935e0801b3d5da03131e0801135e0e019356
            040193988f00b3f4da03938f0500b307be0293940401b3e6960063fef600
            b3860601938ff5ff63e8060163f6f600938fe5ffb3860601b386f64033d3
            d6031314040113540401b3f6d60393070300b3056e0293960601b366d400
            63feb600b38606019307f3ff63e8060163f6b6009307e3ffb38606013384
            b640939f0f01b7050100b3efff001383f5ff93d60f01b3f76f0013df0801
            33f36800b3836702b3846602b307ff02b382e603b386970093d70301b387
            d70063f49700b382b20093d60701b3865600b70201009382f2ffb3f55700
            93950501b3f35300b38575006368d40093870f006314d4046372b7043307
            1701b3321701b3820201330454009387ffff636688006314880263621703
            6366d400639e8600637cb700330717019387efffb33f1701b38f0f013304
            f401b305b7403304d4403337b7003304e440930ff0ff63048812b352d403
            93d605013374d40313870200b30f5e021314040133e48600637ef4013304
            04011387f2ff636804016376f4011387e2ff330404013304f441b356d403
            9395050193d505013374d403330ede021314040133e4850093850600637e
            c401330404019385f6ff636804016376c4019385e6ff3304040113170701
            b365b70013970501135707013304c44113de0501b30e670233036e02330e
            cf03330fef0213d70e01330f6f003307e70163766700b7060100330ede00
            135307013303c301370e0100130efeffb376c70193960601b3fece01b386
            d60163686400938f0500631064046380060433048800938ff5ff63640403
            636664006314640263f0d80213971800b338170133880801938fe5ff3304
            040193080700631464006384160193ef1f009306f53f635ad01013f77f00
            6300070213f7ff0093054000630ab70093854f00b3bff501b387f701938f
            050013977700635a0700370700ff1307f7ffb3f7e700930605401307e07f
            634ad7181397d70193df3f003367f70193d73700b70510009385f5ffb3f7
            b700b70510809385f5ff93f6f67f93964601b3f7b7008320c10203248102
            1316f601b3e7d700b3e6c70083244102032901028329c101032a8101832a
            4101032b0101832bc100130507009385060013010103678000001305f5ff
            130700006ff05fcb1306090093870a00930f040013070b00930620006300
            d710930630006302d70e93061000e31ad7f093070000130700006f004009
            138609006ff09ffdb7070800930f000013060000130730006ff05ffc9305
            1000b385d54013078003e346b7fc1307f0016344b7061305e5413397a700
            b3d6bf003395af003367d7003335a0003367a700b3d7b700937677006380
            06029376f70093054000638ab6009306470033b7e600b387e70013870600
            9396870063ca06069396d7011357370033e7e60093d73700930600006ff0
            dfec130710fe3307d7401308000233d7e70093060000638605011305e543
            b396a70033e5f6013335a0003367a700930700006ff0dff8b70708001307
            00009306f07f130600006ff05fe893070000130700009306f07f6ff05fe7
            9307000013070000930610006ff05fe6130101fd23202103232a51013709
            100093da4501232e3101232c410123286101232671011309f9ff23261102
            232481022322910293fafa7f130b0500930b0600138a06003379b90093d9
            f50163860a0a9307f07f6384fa103704800013193900336989001354d501
            3364240193143500938a1ac0130b000013554a01370910001309f9ff1375
            f57f3379490113870b00135afa01630205109307f07f6302f516b7078000
            131939003369f90093d7db01b3e7270113973b00130515c0930600009315
            2b00b3e5d5003385aa009385f5ff9308e00033c649011308150063eeb814
            3745006093952500130545c2b385a50083a50500678005003364a900630e
            04066300090413050900ef001063930755ff1307c001634cf7021304d001
            930485ff3304f4403319990033548b0033642401b3149b00930ad0c0b38a
            aa406ff09ff3ef00905f130505026ff05ffc130485fd33148b0093040000
            6ff0dffd3364a900630404029304050013040900930af07f130b30006ff0
            5ff093040000930a0000130b10006ff05fef93040000930af07f130b2000
            6ff05feeb3677901638e07066300090413050900ef001059930655ff9307
            c00163ced7029307d001130785ffb387d7403319e900b3d7fb00b3e72701
            3397eb009306d0c03385a6406ff01fee13850b00ef005055130505026ff0
            1ffc930785fdb397fb00130700006ff09ffdb36779016382070293070900
            1305f07f930630006ff0dfea1307000013050000930610006ff0dfe91307
            00001305f07f930620006ff0dfe8b70f0100138fffff93d6040113530701
            b3f4e4013377e701b3089302b385e402b382e602338e580093d80501b388
            c801b38e660263f45800b38efe0113d90801b3f8e80193df0701b3f5e501
            b3f3e70193980801b388b800b3877602b3859302b3849f02338ef40093d4
            0501b384c401b386f60363f6f400b7070100b386f60013df0401b7090100
            330fdf009386f9ffb3f4d400b3f5d50093570401939404013374d400b384
            b400b306e40233099900338ee702b30583023307f3023383c50193d50601
            b385650063f4c5013307370113d30501b7090100b302e3001387f9ffb3f5
            e500b3f6e6003303740293950501b385d5003387770233848f02338eff02
            3304e40093570301338487006374e400330e3e01b70701009387f7ffb376
            f4003373f30093960601b38e2e01b3866600b3b49e00b386e601b3879600
            b38ebe00b3b5be0033835700b30fb300b3b6e601b3b79700b3e7f6001354
            040133335300b3b5bf00b3878700b365b300b387b700b387c70113d77f01
            93979700b3e7e70013979e00336717013337e00093de7e0193969f003367
            d7013367d7009396770063da0610935617001377170033e7e6009396f701
            3367d70093d717009305f83f635eb00e93767700638006029376f7001305
            4000638aa6009306470033b7e600b387e700138706009396770063da0600
            b70600ff9386f6ffb3f7d700930508409306e07f63ceb616935637001397
            d7013367d70093d73700b70610009386f6ffb3f7d70093f6f57fb7051080
            9385f5ff93964601b3f7b7008320c102032481021316f601b3e7d700b3e6
            c70083244102032901028329c101032a8101832a4101032b0101832bc100
            130507009385060013010103678000001386090093070400138704009306
            0b0093052000638ab60e93053000638cb60c93051000e390b6f293070000
            130700006f00800813060a006ff09ffd130805006ff05ff0130510003305
            b54093068003e3cca6fc9306f00163c4a6061308e841b3960701b355a700
            33170701b3e6b6003337e00033e7e600b3d7a70093767700638006029376
            f70093054000638ab6009306470033b7e600b387e7001387060093968700
            63ca06069396d7011357370033e7e60093d73700930500006ff05fee9306
            10feb386b64093080002b3d6d70093050000630615011308e843b3950701
            33e7e5003337e00033e7e600930700006ff0dff8b7070800130700009305
            f07f130600006ff0dfe993070000130700009305f07f6ff0dfe893070000
            13070000930510006ff0dfe7370810001308f8ff130101feb378b80013d7
            45019357d5013378d800232821011379f77f13973800b3e7e70093d8f601
            13d74601131838009356d601232a910033e30601232e1100232c81002326
            31011377f77f9306f07f93d4f50113153500131636006316d700b366c300
            6394060093c818003308e9406394983a6354001f631207143367c3006314
            070c9306f07f13070800631cd830b3e6a700639806309307000013050000
            9396870063de0600130717009306f07f630cd774b70680ff9386f6ffb3f7
            d7009396d7011355350033e5a6009306f07f93d73700631ed7003365f500
            9307000063080500b70708001305000093040000b70610009386f6ffb3f7
            d700b70610801377f77f9386f6ff13174701b3f7d700b3e7e70037070080
            1347f7ff8320c101032481019395f401b3f7e70033e7b700832441010329
            01018329c1009305070013010102678000009305f8ff639c05043306c500
            3335a600b3876700b387a70013071000130506009396870063dc06221307
            17009306f07fe300d7f2b70680ff9386f6ffb3f6d7009355150013751500
            9397f60133e5a50033e5a70093d716006f0040201307f07f6314e80233e7
            a700630007621307f07f6f00c01e1307f07fe306e9fe370780003363e300
            9305080013078003634eb7061307f0016342b704130700023307b740b356
            b6003318e3003316e6003368d8003336c0003368c800b355b3003308a800
            b385f500b337a800b387f50013050800130709006ff0dff4130700023358
            b300930600006388e50093060004b385b640b316b30033e6c6003336c000
            3368c800930500006ff09ffb3368c300333800016ff01fff630a080e631e
            0908b3e6a700639206029307f07f6318f7003365c30093070000e30205e2
            93070300130506006f00c0119306f0ff631cd8003305c500b38767003336
            c500b387c7006ff05fec9306f07f1348f8ffe302d7fc9306800363c60609
            9306f00163ca060593050002b3850541b3580501b396b7003315b500b3e6
            16013335a00033e5a60033d807013305c50033086800b337c500b307f800
            6ff01fe79306f07fe30ad7f6b706800033080041b3e7d7006ff05ffa9308
            0002b3d6070193050000630818019305000433880541b395070133e5a500
            3335a00033e5a600130800006ff09ffa33e5a7003335a0006ff01fff1307
            19009375f77f9306100063c8b60833e7a7006314090663080744b366c300
            13070000638806023306c5003335a600b3876700b387a700939687001305
            060063da0600370780ff1307f7ffb3f7e7001307100093767500e38c06ce
            9376f50013064000e386c6ce9306450033b5a600b387a700138506006ff0
            9fcd630c073e3368c300e30008deb7074000130500001307f07f93040000
            6ff09fcb9306f07fe304d7ca3306c50033886700b337a6003308f8001315
            f801135616003365c500935718006ff01ff9635e000f6312070a3367c300
            e30007c69306f8ff639e06023306c5403335c500b3876740b387a7401307
            10001305060093968700e3dc06f4370480001304f4ff33f4870093090500
            130907006f0000271307f07fe300e8d413078003634ad7081307f001634e
            d704130700023307d740b355d6003318e3003316e6003368b8003336c000
            3368c800b356d30033080541b386d740b3370501b387f640130508001307
            09006ff0dff81307f07fe304e9ce370780003363e300930608006ff0dff9
            130700023358d300130400006388e60013040004b306d4403314d3003366
            c4003336c0003368c800930600006ff01ffa3368c300333800016ff01fff
            630a080e631e0908b3e6a700639006029307f07f6316f7003365c3006308
            052a93070300130506006f00c00f9306f0ff631ed8003305a640b307f340
            3336a600b387c740938408006ff0dfee9306f07f1348f8ffe302d7fc9306
            800363c606099306f00163ca060593050002b3850541335e0501b396b700
            3315b500b3e6c6013335a00033e5a60033d807013305a64033080341b337
            a600b307f8406ff09ffa9306f07fe30ad7f6b706800033080041b3e7d700
            6ff05ffa130e0002b3d60701930500006308c8019305000433880541b395
            070133e5a5003335a00033e5a600130800006ff09ffa33e5a7003335a000
            6ff01fff130719001377f77f9306100063cae608b3e6a7003367c3006314
            0906639e06006302071c930703001305060013070000938408006ff09fd6
            63000704b306c540b335d500338767403307b7409315870063dc05003305
            a640b307f3403336a600b387c7406ff09ffc33e5e600630a050c93070700
            13850600130700006ff01fd2639c06006308071693070300130506009384
            08006ff09fb1e30a07b06ff05fd3b309c540338467403338350133040441
            1317840063520708b309a6403304f340b33736013304f44093840800630e
            040613050400ef00c027130785ff9307f00163cce70693070002b387e740
            3314e400b3d7f90033e487003395e9006340270b33072741930717009306
            f00163cef604130700023307f7403356f500b316e4003315e500b3e6c600
            3335a00033e5a600b357f4006ff05ff433e58900e31805f8930700006f00
            800a13850900ef004020130505026ff05ff8130485fd3394890013050000
            6ff09ff9130717fe130600023357e400930600006388c70093060004b386
            f640b316d4003365d5003335a0003365a700930700006ff01feeb70780ff
            9387f7ff3307e940b377f4006ff01fbf93070300130506006ff01fec9307
            0300130506006ff09f9e93070000130500001307f07f6ff05f8c93070000
            938408006ff09f8b9307000013050000130700006ff0dfbe13050000b707
            40006ff0dfbd93070000130500006ff01f8b13d74501b706100013060500
            9387f6ff1377f77f1305e03fb3f7b70093d5f501635ae504130500006398
            05009305e0411305f0ff63d4e50067800000b3e7d70093063043b386e640
            9305f00163ccd5001307d7beb397e7003355d60033e5a700678000001305
            30413305e54033d5a700678000001305000067800000130101ff23261100
            23248100232291006302050a130405009354f501635405003304a0401305
            0400ef00000a1307e0419307a0003307a74063c6a7069307b000b387a740
            13055501b357f4003314a400370510001305f5ffb7061080b3f7a7001377
            f77f9386f6ff13174701b3f7d700b3e7e700370700801347f7ff13050400
            8320c100032481009394f401b3f7e70033e7970093050700832441001301
            010167800000130555ffb317a400130400006ff01ffa9307000013040000
            13070000930400006ff0dff8b7070100637af5029307f00fb3b7a7009397
            3700130700023307f740b357f50037450060130505c6b387a70003c50700
            3305a740678000003707000193070001e36ae5fc930780016ff0dffc1301
            01ff93050000232481002326110013040500ef00c00fb707008003a50700
            8327c50363840700e780070013050400ef0090161308f00013070500637e
            c8029377f7006390070a63920508937606ff1376f600b386e6002320b700
            2322b7002324b7002326b70013070701e366d7fe6314060067800000b306
            c8409396260097020000b38656006780c6002307b700a306b7002306b700
            a305b7002305b700a304b7002304b700a303b7002303b700a302b7002302
            b700a301b7002301b700a300b7002300b7006780000093f5f50f93968500
            b3e5d50093960501b3e5d5006ff0dff69396270097020000b38656009382
            0000e78006fa93800200938707ff3307f7403306f600e378c8f66ff0dff3
            130101fdb7070080232e310183a90700232c4101232a5101232861012326
            110223248102232291022320210323267101930a0500138a0500130b1000
            83a48914638c040003a444001309f4ff1314240033848400635809028320
            c1020324810283244102032901028329c101032a8101832a4101032b0101
            832bc1001301010367800000630c0a0083274410638847011309f9ff1304
            c4ff6ff0dffb03a74400832744001307f7ff631c270323a22401e38007fe
            83a6841833172b0183ab4400b376d70063920602e780070003a7440083a7
            8914e31477f7e38cf4fa6ff01ff6232204006ff0dffc83a6c41883254408
            3377d7006318070013850a00e78007006ff0dffc13850500e78007006ff0
            1ffc130101ff232291009384050093050000232611002324810013040500
            ef0010299385040013050400ef00903d930405009305000013050400ef00
            d0318320c1000324810013f5f40f832441001301010167800000130101ff
            23248100370400802322910023261100232021011304c44b034904009304
            0500630809089305b005eff01ff8b70700809387d74b03c6070037070080
            1307c7643307c70003490700034704009306160093f6f60f1307f7ff1315
            05012300e4002380d70013070001135505016394e6002380070013158500
            131405019305090013850400eff05ff2135404013365a4008320c1000324
            81001315050183244100032901001355050113010101678000009305a005
            eff05fef13150501135505016ff05ffb130101feb7b70000232c81002324
            410137040100375a0000232821012326310123225101232e1100232a9100
            930a05001304f4ff938957a5138967a5130aaa5a13850a00eff05fef9304
            05006318050063160406130500006f008001631c3503631e3405b7070080
            23ac074a130510008320c1010324810183244101032901018329c100032a
            8100832a41001301010267800000631c250163123403b707008013071000
            23ace74a6ff05ffc631845019305000013850a00eff0dfe2138404006ff0
            1ff8130101fb23202105370900808327094c23229104232a510323229103
            2326110423248104232e3103232c41032328610323267103232481032320
            a103232eb101231006002311060023120600231306002314060023150600
            930a0500938c0500930406001309094c63980704eff01fed130400006314
            0504130504008320c1040324810483244104032901048329c103032a8103
            832a4103032b0103832bc102032c8102832c4102032d0102832dc1011301
            0105678000002320090037ba0000130b5aa513040000130a6aa5b70b0080
            130d5000930d6000e37094fb93071008e3ec87f813850a00eff0dfd81307
            0500631c6501930710002320f900b707008023ac074a6ff05ff7631c4501
            93071000370700802320f900232cf74a6ff0dff5e30c05f4938604009307
            00009309000003a68b4b138c8b4b631806026396a903239504006398e700
            13041400131404011354040113850a00eff0dfd16318650523200c006ff0
            5ff713850a002326f1002324e1002322d100eff0dfcf8327c10083264100
            93891900b307f500939707012390a60093f9f90f93d70701938626000327
            8100e396b9f96ff0dff9e31645ed930710002320fc006ff01ff2b7170000
            938707273305f502130101ff232601008327c10063c6a700130101016780
            00008327c100938717002326f1006ff05ffeb7470060130101fe938747b2
            2322f10037470060b7070080b7060080232e110023240100232601009387
            0700130747d69386860063fcf604b707008037470060b706008093870701
            130707d79386864363f8f604b7070080370700809387874b1307074d6378
            f704b70700803707008093870750130707506374f7049305410013051000
            ef105032eff09f9803260700938747001307470023aec7fe6ff09ff90326
            0700938747001307470023aec7fe6ff01ffa23a00700938747006ff09ffa
            23a00700938747006ff01ffb130101ff232481002326110013040008f337
            4430ef100068b7c7004403a887ff83a8c7fff32740f1b70600809386864c
            03a7060083a546003307e80033350701130607003717000013070780b387
            e7009397370037070044b307f700b385b800b306b50023a0c70023a2d700
            732444308320c100032481001301010167800000130101ff232611002324
            810023229100f32740f193870720370400409397c700b307f40083a44700
            b70700809387874313972400b387e70083a70700e7800700f32740f19387
            07209397c700b307f40023a2970093071000631cf502f32740f193975700
            13d75400b387e700939727003304f400b72700003304f400832704003315
            95001345f5ff3375f5002320a4008320c100032481008324410013010101
            67800000130101ff23261100ef00000a8320c100b707004423a007001301
            010167800000130101ff23248100232611002322910013040500635c0504
            b707008093c7f7ffb377f5001307b000938405006390e702eff0dff08320
            c1000324810013850400832441001301010167800000130770006396e700
            eff09fe66ff0dffd130730006396e700eff0dff76ff0dffcb74500601306
            50009385c5b213051000ef00001213051400ef004011130101ff1305a000
            23261100ef00401013050000678000001305000067800000130500006780
            000013050000678000001305000067800000130500006780000013050000
            678000001305000067800000130500006780000013050000678000001305
            000067800000130500006780000013050000678000001305000067800000
            130500006780000013050000678000001305000067800000130500006780
            000013050000678000001305000067800000130500006780000013050000
            678000001305000067800000130500006780000013050000678000001305
            000067800000130500006780000013050000678000001305000067800000
            1305000067800000130500006780000013050000678000006f000000b707
            00801307900023a0e7501305f0ff678000002320b5006780000003250500
            6780000083270500b396b600b3c6f600b3f6c600b3c6f6002320d5006780
            00009395050193d505012310b50067800000035505006780000093f5f50f
            2300b50067800000034505006780000083470500b396b60093f7f70fb3c6
            d70033f6c600b3c7c70093f7f70f2300f50067800000034505003375a600
            3355b5001375f50f67800000130101fd2326110223248102232291022320
            2103232e310193848500138405002320b500938906009305100093060000
            1385040013090600130620002326e100eff01ff493060000130610009305
            000013850400eff0dff29305100013050401eff01ff1938509001305c400
            eff05ff00327c1001305040093050700eff05fef93060000630409009306
            1000032481028320c102032901028329c101138504008324410213064000
            93052000130101036ff01fed130101ff2324810013040500032505009306
            0000130610009305000023261100eff05fef03250400930530001305c501
            eff01fed032504009305f00f13054500eff01fec03250400032481008320
            c100930610001306100093050000130101016ff05feb130101ff23248100
            23261100232291002320210113040500630e050893840500638a05081309
            0600930500001306800413054500eff08fca9307f9ff9397070123209400
            93d707011307f0016362f70a231224059306000013061000930500001385
            0400eff0dfe4032504009305000013054502eff09fe20325040093053000
            1305c501eff09fe1032504009305f00f13054500eff09fe0032504009305
            000013058501eff09fdf0325040093053000eff0dfde0325040093051000
            13054502eff0dfdd0325040013054502eff0dfdd03250400032481008320
            c100832441000329010013050502130101016ff0dfdb930710002312f404
            6ff0dff5630a0506130101ff232481001304050003250500930600001306
            10009305000023261100eff01fd90325040023240404930530001305c501
            eff09fd6032504009305f00f13054500eff09fd503250400930500001305
            8501eff09fd403250400032481008320c10093053000130101016ff01fd3
            678000006302050a9307700063eeb708130101ff23248100130405000325
            05002322910013062000938405009305100023261100eff01fd3630e0504
            03250400130600019305400013050502eff09fd1930710006316f5001305
            0400eff01fdd0325040013054502eff01fcd832704009305100003248100
            b39595008320c10083244100b3e5a50013854702130101016ff0dfc98320
            c10003248100832441001301010167800000678000006304050a93077000
            63e0b70a130101ff23248100130405000325050023229100130620009384
            05009305100023261100eff09fc863000506032504001306000193054000
            13050502eff01fc7930710006316f50013050400eff09fd2032504001305
            4502eff09fc2832704009305100003248100b39595008320c10083244100
            93c5f5ffb3f5a50013854702130101016ff01fbf8320c100032481008324
            4100130101016780000067800000130101fe232e1100232c8100232a9100
            23260100630605061304050003250500938405001306200093051000eff0
            1fbe6308050403250400930530001305c501eff05fb90325040093850400
            13058502eff01fb403250400130620009305100013050502eff09fba9307
            1000e314f5fe0325040013058500eff01fb22326a1008320c10103248101
            0325c100832441011301010267800000130101fe232e1100232c81001304
            0500138505002320b40013058500930500002324d1002326c100eff05fb1
            03250400930500001305c500eff05fb00326c1000325040093050600eff0
            1fab83268100032504009385060013054500eff0dfa90325040093050000
            13050501eff0dfa8032504009305000013058501eff0dfa7032504009305
            000013050502eff0dfa6032504009305000013058502eff0dfa503250400
            9305000013050503eff0dfa4032504009305000013058503eff0dfa30325
            04009305000013050504eff0dfa2032504009305000013058504eff0dfa1
            032504009305000013050505eff0dfa0032504009305000013058505eff0
            df9f032504009305000013050506eff0df9e032504009305000013058506
            eff0df9d032504009305000013050507eff0df9c03250400930500001305
            8507eff0df9b032504009305000013050508eff0df9a0325040003248101
            8320c1019305000013058508130101026ff01f991387f5ff9307f00063ee
            e706b7470060938747b3130101ffb387b700232481002322910003c40700
            2326110093078000930405000325050063e8b70213058500eff0df99b365
            a40003a5040093f5f50f13058500032481008320c1008324410013010101
            6ff0df961305c500eff01f97b365a40003a5040093f5f50f1305c5006ff0
            5ffd678000001387f5ff9307f00063eee706b7470060938747b3130101ff
            b387b7002324810003c4070023229100232611001344f4ff930780009304
            05001374f40f0325050063e6b70213058500eff0df9083a70400b3758500
            13858700032481008320c10083244100130101016ff01f8e1305c500eff0
            5f8e83a70400b37585001385c7006ff09ffd678000009386f5ff1307f000
            636cd708631406006ff09ff6130101fe37470060232631011307c7b89399
            250033073701232c8100832707001304050003250500232a910093840500
            3305f50093050000232e11002328210113090600eff05f82b74700609387
            87b4b38737010325040083a70700930509003305f500eff05f8013050400
            032481018320c101032901018329c1009385040083244101130101026ff0
            5fe567800000130101ff2324810023229100232021012326110013040500
            2320b400938405002322c50013890508138504009305000093844400eff0
            8ffee39824ff8327440013071000638ae7026384070613072000639ae70a
            03250400032481008320c10083244100032901009305f0ff130505081301
            01016ff04ff603250400b70401009385f4ff13050508eff0cff703250400
            032481008320c100032901009385f4ff8324410013054508130101016ff0
            8ff5032504009305f00f13050508eff00ff6032504009305f00f13054508
            eff00ff5032504009305f00f13058508eff00ff403250400032481008320
            c10083244100032901009305f00f1305c508130101016ff0cff18320c100
            03248100832441000329010013010101678000001307f001636cb7000325
            050093972500930506003385a7006ff04fea6780000083274500130101ff
            2324810023229100232611001307100013040500938405006386e702638e
            0704130720006396e70a03250500032481008320c100832441001305050a
            130101016ff04fe5032505009395050193d505011305050aeff0cfe60325
            0400032481008320c10093d50401832441001305450a130101016ff0cfe4
            0325050093f5f50f1305050aeff04fe50325040093d5840093f5f50f1305
            450aeff00fe40325040093d5040193f5f50f1305850aeff0cfe203250400
            032481008320c10093d58401832441001305c50a130101016ff0cfe08320
            c10003248100832441001301010167800000130101fe232a910083244500
            232c8100232821012326310123225101232e11002324410113041000930a
            05001389050093090600638e84046382040c930720006392f41203250500
            331424011305050aeff08fd6b365a400639609001344f4ffb375a40003a5
            0a00032481018320c10183244101032901018329c100032a8100832a4100
            1305050a130101026ff04fd213da450083270500131a2a00130a0a0a1374
            f900330afa00b394840013050a0093940401eff08fd393d40441b3e5a400
            6396090093c5f4ffb3f5a500032481018320c10183244101032901018329
            c100832a410013050a00032a81009395050193d50501130101026ff04fce
            93d4350083270500939424009384040a13797900b384f400331424011385
            040013148401eff00fce13548441b365a400639609009345f4ffb3f5a500
            032481018320c101032901018329c100032a8100832a4100138504008324
            410193f5f50f130101026ff04fc98320c101032481018324410103290101
            8329c100032a8100832a41001301010267800000130101ff232291009384
            050093050000232611002324810013040500eff08ff29385040013050400
            eff01f8713050400032481008320c1008324410093050000130101016ff0
            8ffa130101ff232481001304060023229100232021019304050013890500
            13060000130504009305000023261100eff05fe09305090013850400eff0
            1ff813050400032481008320c10083244100032901001306100093050000
            130101016ff05fdd130101ff232481002322910013040500938405001305
            0600930500001306100023261100eff0dfda13050400032481008320c100
            9385040083244100130101016ff09ff1130101fe232c810013840500232a
            910013060000930405009305200013050400232e1100eff09fd637170000
            231401001307e7ff835781006372f75c130610009305200013050400eff0
            5fd437170000231501001307e7ff8357a100637cf75a130604009305f00e
            13850400eff01fef130604009305300013850400eff01ff4130604009305
            000813850400eff01ff3130604009305200013850400eff01ff213060400
            9305f00c13850400eff01feb130604009305000013850400eff01ff01306
            04009305100c13850400eff01fef130604009305000313850400eff01fee
            130604009305d00e13850400eff01fe7130604009305400613850400eff0
            1fec130604009305300013850400eff01feb130604009305200113850400
            eff01fea130604009305100813850400eff01fe9130604009305800e1385
            0400eff01fe2130604009305500813850400eff01fe71306040093050000
            13850400eff01fe6130604009305800713850400eff01fe5130604009305
            b00c13850400eff01fde130604009305900313850400eff01fe313060400
            9305c00213850400eff01fe2130604009305000013850400eff01fe11306
            04009305400313850400eff01fe0130604009305200013850400eff01fdf
            130604009305700f13850400eff01fd8130604009305000213850400eff0
            1fdd130604009305a00e13850400eff01fd6130604009305000013850400
            eff01fdb130604009305000013850400eff01fda130604009305000c1385
            0400eff01fd3130604009305300213850400eff01fd8130604009305100c
            13850400eff01fd1130604009305000113850400eff01fd6130604009305
            500c13850400eff01fcf130604009305e00313850400eff01fd413060400
            9305800213850400eff01fd3130604009305700c13850400eff01fcc1306
            04009305600813850400eff01fd1130604009305600313850400eff01fca
            130604009305800413850400eff01fcf130604009305a00313850400eff0
            1fc8130604009305500513850400eff01fcd130604009305100b13850400
            eff01fc6130604009305000013850400eff01fcb13060400930580011385
            0400eff01fca130604009305600b13850400eff01fc31306040093058000
            13850400eff01fc8130604009305200813850400eff01fc7130604009305
            700213850400eff01fc6130604009305200f13850400eff01fbf13060400
            9305000013850400eff01fc4130604009305600213850400eff01fbd1306
            04009305100013850400eff01fc2130604009305000e13850400eff01fbb
            130604009305f00013850400eff01fc0130604009305100313850400eff0
            1fbf130604009305b00213850400eff01fbe130604009305c00013850400
            eff01fbd130604009305e00013850400eff01fbc13060400930580001385
            0400eff01fbb130604009305e00413850400eff01fba130604009305100f
            13850400eff01fb9130604009305700313850400eff01fb8130604009305
            700013850400eff01fb7130604009305000113850400eff01fb613060400
            9305300013850400eff01fb5130604009305e00013850400eff01fb41306
            04009305900013850400eff01fb3130604009305000013850400eff01fb2
            130604009305100e13850400eff01fab130604009305000013850400eff0
            1fb0130604009305e00013850400eff01faf130604009305400113850400
            eff01fae130604009305300013850400eff01fad13060400930510011385
            0400eff01fac130604009305700013850400eff01fab1306040093051003
            13850400eff01faa130604009305100c13850400eff01fa9130604009305
            800413850400eff01fa8130604009305800013850400eff01fa713060400
            9305f00013850400eff01fa6130604009305c00013850400eff01fa51306
            04009305100313850400eff01fa4130604009305600313850400eff01fa3
            130604009305f00013850400eff01fa2130604009305100113850400eff0
            1f9b37170000231601001307e7ff8357c1006376f7061306040093059002
            13850400eff0df9837170000231701001307e7ff8357e1006370f7068320
            c10103248101832441011301010267800000835781009387170093970701
            93d707012314f1006ff05fa28357a100938717009397070193d707012315
            f1006ff01fa38357c100938717009397070193d707012316f1006ff0dff7
            8357e100938717009397070193d707012317f1006ff09ff8130101ff2324
            8100370400801305c458130610009305500023261100eff04ff11305c458
            1306100093056000eff04ff037040080130544591306600493051000eff0
            4fc2130544591306600493052000eff04fc1130544591306600493053000
            eff04fc013054459032481008320c1001306600493054000130101016ff0
            8fbe67800000130101fe232c810037040080130544599306400613060032
            b7850070232e1100232a910023282101b7040080eff08f93372900009306
            09711306400813858464b7250070eff00f921305445993051000eff00fa8
            1305445993052000eff04fa71305445993053000eff08fa6130544599305
            4000eff0cfa51385846493051000eff00fa51385846493052000eff04fa4
            138584641306e02e93051000eff04fb4138584641306e02e93052000eff0
            4fb39307400637070080232af75e13054459370700801306000093051000
            2322f764eff00fb1130544591306000093052000eff00fb0130544591306
            000093053000eff00faf13054459130600009305400037040080eff0cfad
            13062000b75500701305c458eff00fb7930500001305c458eff00fca1306
            5000930550001305c458eff00fc713065000930560001305c458eff00fc6
            13065000930570001305c458eff00fc537050080130789b5930680001306
            0000b735007013058558efe01fb813065000930500001305c458eff04fc2
            13061000930500001305c458eff00fd213065000930520001305c458eff0
            4fc013061000930520001305c458eff00fd013065000930510001305c458
            eff04fbe13061000930510001305c458eff00fceb704008013068000b765
            00701385845aefe05fc21385845aefe09fd13709008013068000b7950070
            1305895fefe09fc01305895fefe0dfcf9305c4581385845aeff00ff11307
            e00f231701008357e100637ef7008320c101032481018324410103290101
            13010102678000008357e100938717009397070193d707012317f1006ff0
            dffc130101ff232611002324810093071000631cf5063704008013061000
            930550001305c458eff04fc3130600001305c45893056000eff04fc23704
            0080130544591306400693051000eff04f94130544591306400693052000
            eff04f93130544591306400693053000eff04f9213054459032481008320
            c1001306400693054000130101016ff08f90631005023704008013060000
            930550001305c458eff0cfbb130610006ff09ff88320c100032481001301
            010167800000130101ff2324810037040080130544591306000093051000
            23261100eff08f8b130544591306000093052000eff08f8a130544591306
            000093053000eff08f8913054459032481008320c1001306000093054000
            130101016ff0cf87930710006314f5006ff0dfc063120508130101ff2324
            8100370400801305c458130600009305500023261100eff08fb11305c458
            1306000093056000eff08fb037040080130544591306600493051000eff0
            8f82130544591306600493052000eff08f81130544591306600493053000
            eff08f8013054459032481008320c1001306600493054000130101016fe0
            dffe67800000130101ff2324810037040080232291001306050093840500
            130584649305100023261100efe01ffc13058464032481008320c1001386
            04008324410093052000130101016fe01ffa130101fb2324810423202105
            232e3103232c4103232a5103232861032326710323248103232291032326
            1104232291042320a103232eb101eff05fb8b747006003a907bd83a947bd
            b747006003aa87bd83aac7bdb747006003ab07be83ab47be1304e02e130c
            0000b70c0080130641009305200013858c5fefe00f9f0357410093071000
            631cf712835461009307e01363e6971213050400efd0dfcb938414f6130d
            050013850400938d0500efd09fca1306090093860900efc0dfe213060a00
            93860a00efc01fe213060b0093860b00efc08ff313060500938605001305
            0d0093850d00efd08fbdefd01fbf1304050013150501135505019307204e
            63f4a7001304204e13170401135707019307a00f6374f7001304a00f1314
            040193848402930700051354040163fa97009305e02e13050400eff05fe8
            6ff05ff3930724d16340f00663840700130c10000357c1008354a1009387
            2703b384e40237b7ffff1307875cb384e40013074006637af70013050c00
            eff0dfc913054001efe08faab71700009387873863d0970213050000eff0
            5fd91305f000efe0cfa86ff01fed130c00006ff09ffab7f7ffff93870706
            63d6f400eff05f986ff0dffdeff0dfd06ff0dfea68656c6c6f0000007472
            61700a000000000102040810204080010204081020408000000000000000
            140000001c000000240000002c000000340000003c000000440000004c00
            0000540000005c000000640000006c000000740000007c00000084000000
            8c0000000000000010000000180000002000000028000000300000003800
            000040000000480000005000000058000000600000006800000070000000
            780000008000000088000000b81e85eb51b89e3f00000000000049400000
            000000002240240800603807006044070060380700601008006038070060
            440700602408006024080060100800604407006010070060100700601007
            00604c070060040d0060040d0060280d0060f80c0060f80c0060e80d0060
            280d0060f80c0060e80d0060f80c0060280d0060f40c0060f40c0060f40c
            0060e80d0060000102020303030304040404040404040505050505050505
            050505050505050506060606060606060606060606060606060606060606
            060606060606060606060707070707070707070707070707070707070707
            070707070707070707070707070707070707070707070707070707070707
            070707070707070707070707070708080808080808080808080808080808
            080808080808080808080808080808080808080808080808080808080808
            080808080808080808080808080808080808080808080808080808080808
            080808080808080808080808080808080808080808080808080808080808
            080808080808080808080808080808080808080808084300000010000080
            100000800000000000000000fc02008064030080cc030080000000000000
            000000000000000000000000000000000000000000000000000000000000
            603d00600000000000000000000000000000000000000000000000000000
            000000000000000000000000000000000000000000000000000000000000
            000000000000000000000000000000000000000000000000000000000000
            000000000000000000000000000000000000000000000000000001000000
            000000000e33cdab34126de6ecde05000b00000000000000000000000000
            000000000000000000000000000000000000000000000000000000000000
            000000000000000000000000000000000000000000000000000000000000
            000000000000000000000000000000000000000000000000000000000000
            000000000000000000000000000000000000000000000000000000000000
            000000000000000000000000000000000000000000000000000000000000
            000000000000000000000000000000000000000000000000000000000000
            000000000000000000000000000000000000000000000000000000000000
            000000000000000000000000000000000000000000000000000000000000
            000000000000000000000000000000000000000000000000000000000000
            000000000000000000000000000000000000000000000000000000000000
            000000000000000000000000000000000000000000000000000000000000
            000000000000000000000000000000000000000000000000000000000000
            000000000000000000000000000000000000000000000000000000000000
            000000000000000000000000000000000000000000000000000000000000
            000000000000000000000000000000000000000000000000000000000000
            000000000000000000000000000000000000000000000000000000000000
            000000000000000000000000000000000000000000000000000000000000
            000000000000000000000000000000000000000000000000000000000000
            000000000000000000000000000000000000000000000000000000000000
            000000000000000000000000000000000000000000000000000000000000
            000000000000000000000000000000000000000000000000000000000000
            000000000000000000000000000000000000000000000000000000000000
            000000000000000000000000000000000000000000000000000000000000
            000000000000000000000000000000000000000000000000000000000000
            000000000000000000000000000000000000000000000000000000000000
            000000000000000000000000000000000000000000000000000000000000
            000000000000000000000000000000000000000000000000000000000000
            000000000000000000000000000000000000000000000000000000000000
            000000000000000000000000000000000000000000006020006068200060
            702000607820006080200060882000609020006098200060a0200060a820
            0060b0200060b8200060c0200060c8200060d0200060d8200060e0200060
            e8200060f0200060f8200060002100600821006010210060182100602021
            006028210060302100603821006040210060482100605021006058210060
            <crc>
                048c
            </crc>
        </region>
        <region name="M3_BOOT" address="0x078000" retrieveAddressFromFile="false" size="3456" format="HEX" type="Data Storage" wordSize="8" numberWords="3456" memFile="C:\Users\REN\Desktop\199\workplace2\M2S025-Creative-Board\Modify_The_FPGA_Design\SF2_CoreRISCV_AXI4_TickTackToe\hex\M3-Disable_M2S025-FutureCreativeBoard-DDR.hex" memType="INTELHEX" memFileTimeStamp="" clientType="public" program="true">
            <read_protect/>
            00000120910100007f030000810300008303000085030000870300000000
            0000000000000000000000000000890300008b030000000000008d030000
            8f03000091030000930300009503000097030000990300009b0300009d03
            00009f030000a1030000a3030000a5030000a7030000a9030000ab030000
            ad030000af030000b1030000b3030000b5030000b7030000b9030000bb03
            0000bd030000bf030000c1030000c3030000c5030000c7030000c9030000
            cb030000cd030000cf030000d1030000d3030000d5030000d7030000d903
            0000db030000dd030000df030000e1030000e3030000e5030000e7030000
            e9030000eb030000ed030000ef030000f1030000f3030000f5030000f703
            0000f9030000fb030000fd030000ff030000010400000304000005040000
            07040000090400000b0400000d0400000f04000011040000130400001504
            000017040000190400001b0400001d0400001f0400002104000023040000
            2504000027040000290400002b0400002d0400002f040000310400003304
            000000000000000000004ff0000bdff8be020068dff8b612096801f00301
            00f01c00142801d14bf0020b002901d04bf0010bbbf1000f05d0a748a749
            dff8722200f09ff8a64880470bf0020abaf1000f0cd0dff86e02dff86e12
            02680b680fb44ff000024ff0ff0302600b609d4800220123022808d1dff8
            3e120a60dff842120a60dff836120b60012808d1dff82e120a60dff82a12
            0a60dff81e120b609148002809d191489149924a00f032f891489249924a
            00f02df892489249934a00f028f892489349dff8e62100f05af8bbf1000f
            12d090489049dff8da2100f051f80bf0020abaf1000f07d00fbc02600b60
            00bfaff30080aff30080dff820020ff2030e00474ff000004ff00001dff8
            14f2fee72de9f841884225d0b2eb010200d5fee740ea010313f0030302d0
            00f01df819e04ff0000390461211f7d09a421cbff0c8f0c103f10103f8d1
            08f00f08b8f1000f08d004780c7000f1010001f10101b8f10108f6d1bde8
            f88108b54ff0000303780b7000f1010001f10101013af7d108bd884237d0
            00f00306002e14d04ff00405a5eb06044ff0080707fb06f8914669fa08f9
            002c07d080f8009069fa07f900f10100013cf5e74ff000060f46091a8846
            0911914614461546b14206d018bfa0e8340206f10106b142f8d108f00f08
            b8f1000f07d002704fea322200f10100b8f10108f4e77047fee7fee7fee7
            fee7fee7fee7fee7fee7fee7fee7fee7fee7fee7fee7fee7fee7fee7fee7
            fee7fee7fee7fee7fee7fee7fee7fee7fee7fee7fee7fee7fee7fee7fee7
            fee7fee7fee7fee7fee7fee7fee7fee7fee7fee7fee7fee7fee7fee7fee7
            fee7fee7fee7fee7fee7fee7fee7fee7fee7fee7fee7fee7fee7fee7fee7
            fee7fee7fee7fee7fee7fee7fee7fee7fee7fee7fee7fee7fee7fee7fee7
            fee7fee7fee7fee7fee7fee7fee7fee7fee7fee7fee7fee7fee770470000
            0000a2a2a2a2008003400880034010800340308003403480034038800340
            18080240000000f0002000000120ad040000000000000100000000000060
            0000000090010000c0060060c00600005009000050090060000000203004
            002030040020500400205004002000f00020bd070000790700004ff60202
            38b53a4bd3f84c11914262d0384a536943f400735361354b996861b1fff7
            b2ff324a936c23f480339364324b1a6842f003021a6049e0304b30481b68
            30f8112043f82120013139292c4af7d102f1700003f5077103f5487430f8
            025f41f8045ba142f9d1b2f8f410c3f80014b2f8f610c3f80414b2f8f810
            c3f80814b2f8fa10c3f80c14b2f8fc10c3f81014b2f8fe10c3f81414b2f8
            0011c3f81814b2f80211c3f81c14b2f80411c3f84014b2f80611b2f80821
            c3f84414c3f8482401221a60d3f8e420002afbd0a8e75a68d207fcd538bd
            d3f8982042f48072c3f89820d3f8982022f08062c3f898208fe700800340
            00ed00e000200240bc060000b00500000000000008119002020000000100
            9f0900003333ffff7777ff0f010000420800520944000000000080026500
            e5010200280078012300330d040000000033000000000c04000000000000
            020000008020f8800700f880070000020000000004000300400000000000
            000000000903010000000000000080000000000003000000000000000000
            00000b000000000000000000800004200001080000000000000000000000
            010000000000000000000000504001051450000008001800000005000000
            000000000000000000000000000050000105105000000000000000000000
            000043000000030001000100000000000000010000000000000000000000
            00000000000000000000000000000008024010b5054c237833b9044b13b1
            0448aff300800123237010bd300400200000000020090000084b10b51bb1
            08490848aff300800848036803b910bd074b002bfbd0bde81040184700bf
            0000000034040020200900000000002000000000144b10b59a6c144c42f4
            80129a649a6c012042f0f0729a6400221357013203f01f015b099b0003f1
            604300fa01f103f56143202ac3f88010c3f88011edd1054b9a6c22f0f072
            9a649a6c22f480129a6410bd00bf00800340f808000007b5fff7cfff0d4b
            4ff05532c3f8882072b630bf4ff0aa32c3f88820084a1168c9090191019a
            1ab1019a013a0192f9e7d3f88820d243c3f88820f2e70030014004000020
            70b50f4e0f4d761bb61018bf002405d0013455f8043b9847a642f9d10a4e
            0b4d00f0a0f8761bb61018bf002406d0013455f8043b9847a642f9d170bd
            70bd00bf38090000380900004009000038090000024b13b1024800f005b8
            7047000000002d080000002301461a46184600f014b838b5074d074c2c1b
            a41005d0013c55f8043d9847002cf9d1bde8384000f070b8440900004009
            00002de9f047254c064625688846d5f8484192469946c4b360681f2817dc
            411c76b104eb8003c3f888a0d4f88851012282401543022ec4f88851c3f8
            08911ed0831c6160002044f82380bde8f087144b03b34ff4c870aff30080
            0446d0b1d5f84831002784e888003846c5f848410121c4f88871c4f88c71
            002ee1d0d1e7d4f88c311a43c4f88c21dae705f5a674c5f84841c1e74ff0
            ff30bde8f08700bf1c0900000000000032333435363738393a3b3c3d3e3f
            404142434445464748494a4b4c4d4e4f50514300000008000020f8b500bf
            f8bc08bc9e467047f8b500bff8bc08bc9e4670470d080000e5060000c106
            000000000000000000000000000000000000c07af20400000000f4020020
            5c030020c403002000000000000000000000000000000000000000000000
            000000000000000000000000000018090000000000000000000000000000
            000000000000000000000000000000000000000000000000000000000000
            000000000000000000000000000000000000000000000000000000000000
            000000000000000000000000000000000000000000000000000000000000
            0000000000000000000001000000000000000e33cdab34126de6ecde0500
            0b0000000000000000000000000000000000000000000000000000000000
            000000000000000000000000000000000000000000000000000000000000
            000000000000000000000000000000000000000000000000000000000000
            000000000000000000000000000000000000000000000000000000000000
            000000000000000000000000000000000000000000000000000000000000
            000000000000000000000000000000000000000000000000000000000000
            000000000000000000000000000000000000000000000000000000000000
            000000000000000000000000000000000000000000000000000000000000
            000000000000000000000000000000000000000000000000000000000000
            000000000000000000000000000000000000000000000000000000000000
            000000000000000000000000000000000000000000000000000000000000
            000000000000000000000000000000000000000000000000000000000000
            000000000000000000000000000000000000000000000000000000000000
            000000000000000000000000000000000000000000000000000000000000
            000000000000000000000000000000000000000000000000000000000000
            000000000000000000000000000000000000000000000000000000000000
            000000000000000000000000000000000000000000000000000000000000
            000000000000000000000000000000000000000000000000000000000000
            000000000000000000000000000000000000000000000000000000000000
            000000000000000000000000000000000000000000000000000000000000
            000000000000000000000000000000000000000000000000000000000000
            000000000000000000000000000000000000000000000000000000000000
            000000000000000000000000000000000000000000000000000000000000
            000000000000000000000000000000000000000000000000000000000000
            000000000000000000000000000000000000000000000000000000000000
            000000000000000000000000000000000000000000000000000000000000
            000000000000000000000000000000000000000000000000000000000000
            000000000000000000000000000000000000000000000000000000000000
            000000000000000000000000000000000000000000000000000000000000
            000000000000
            <crc>
                2dfd
            </crc>
        </region>
    </nvm>
</Actel_Data_File>
