<Actel_Data_File>
    <format name="NVM File" version="01.00.00"/>
    <header>
        <die>
            M2S025
        </die>
        <family>
            SmartFusion2
        </family>
        <module>
            
        </module>
        <package>
            256 VF
        </package>
        <version>
            11.8.0.26
        </version>
    </header>
    <nvm>
        <region name="RISCV_BOOT" address="0x000000" retrieveAddressFromFile="false" size="18744" format="HEX" type="Data Storage" wordSize="8" numberWords="18744" memFile="C:\Users\REN\Desktop\199\workspace\Risc-v_ObjectTracker\Release\Risc-v_ObjectTracker.hex" memType="INTELHEX" memFileTimeStamp="" clientType="public" program="true">
            6f00c0006f0000006f004003970200009382020373905230735000307350
            30307350203073504030970100209381817d17110020130101e36f209033
            130101f82320110023222100232431002326410023285100232a6100232c
            7100232e8100232091022322a1022324b1022326c1022328d102232ae102
            232cf102232e01032320110523222105232431052326410523285105232a
            6105232c7105232e8105232091072322a1072324b1072326c1072328d107
            232ae107232cf107f3221034232e510673252034f325103413060100ef20
            104b73101534b72200009382028073a00230832001000321410083218100
            0322c1008322010103234101832381010324c10183240102032541028325
            81020326c1028326010303274103832781030328c1038328010403294104
            83298104032ac104832a0105032b4105832b8105032cc105832c0106032d
            4106832d8106032ec106832e0107032f4107832f81071301010873002030
            370810001308f8ff130101feb378b80013d745019357d501232821011379
            f77f139738003378d800b3e7e70013d7460113183800232a91001377f77f
            93d8f601232e11009356d601232c81002326310193d4f50133e306011315
            3500131636003308e9406394143b6354001f631207143367c3006314070c
            9306f07f13070800631cd830b3e6a7006398063093070000130500009396
            870063de0600130717009306f07f630cd774b70680ff9386f6ffb3f7d700
            9396d7011355350033e5a6009306f07f93d73700631ed7003365f5009307
            000063080500b70708001305000093040000b70610009386f6ffb3f7d700
            b70610801377f77f9386f6ff13174701b3f7d700b3e7e700370700801347
            f7ff8320c101032481019395f401b3f7e70033e7b7008324410103290101
            8329c1009305070013010102678000009305f8ff639c05043306c5003335
            a600b3876700b387a70013071000130506009396870063dc062213071700
            9306f07fe300d7f2b70680ff9386f6ffb3f6d70093551500137515009397
            f60133e5a50033e5a70093d716006f0040201307f07f6314e80233e7a700
            630007621307f07f6f00c01e1307f07fe306e9fe370780003363e3009305
            080013078003634eb7061307f0016342b704130700023307b740b356b600
            3318e3003316e6003368d8003336c0003368c800b355b3003308a800b385
            f500b337a800b387f50013050800130709006ff0dff4130700023358b300
            930600006388e50093060004b385b640b316b30033e6c6003336c0003368
            c800930500006ff09ffb3368c300333800016ff01fff630a080e631e0908
            b3e6a700639206029307f07f6318f7003365c30093070000e30205e29307
            0300130506006f00c0119306f0ff631cd8003305c500b38767003336c500
            b387c7006ff05fec9306f07f1348f8ffe302d7fc9306800363c606099306
            f00163ca060593050002b3850541b3580501b396b7003315b500b3e61601
            3335a00033e5a60033d807013305c50033086800b337c500b307f8006ff0
            1fe79306f07fe30ad7f6b706800033080041b3e7d7006ff05ffa93080002
            b3d6070193050000630818019305000433880541b395070133e5a5003335
            a00033e5a600130800006ff09ffa33e5a7003335a0006ff01fff13071900
            9375f77f9306100063c8b60833e7a7006314090663080744b366c3001307
            0000638806023306c5003335a600b3876700b387a7009396870013050600
            63da0600370780ff1307f7ffb3f7e7001307100093767500e38c06ce9376
            f50013064000e386c6ce9306450033b5a600b387a700138506006ff09fcd
            630c073e3368c300e30008deb7074000130500001307f07f930400006ff0
            9fcb9306f07fe304d7ca3306c50033886700b337a6003308f8001315f801
            135616003365c500935718006ff01ff9635e000f6312070a3367c300e300
            07c69306f8ff639e06023306c5403335c500b3876740b387a74013071000
            1305060093968700e3dc06f4370480001304f4ff33f48700930905001309
            07006f0000271307f07fe300e8d413078003634ad7081307f001634ed704
            130700023307d740b355d6003318e3003316e6003368b8003336c0003368
            c800b356d30033080541b386d740b3370501b387f6401305080013070900
            6ff0dff81307f07fe304e9ce370780003363e300930608006ff0dff91307
            00023358d300130400006388e60013040004b306d4403314d3003366c400
            3336c0003368c800930600006ff01ffa3368c300333800016ff01fff630a
            080e631e0908b3e6a700639006029307f07f6316f7003365c3006308052a
            93070300130506006f00c00f9306f0ff631ed8003305a640b307f3403336
            a600b387c740938408006ff0dfee9306f07f1348f8ffe302d7fc93068003
            63c606099306f00163ca060593050002b3850541335e0501b396b7003315
            b500b3e6c6013335a00033e5a60033d807013305a64033080341b337a600
            b307f8406ff09ffa9306f07fe30ad7f6b706800033080041b3e7d7006ff0
            5ffa130e0002b3d60701930500006308c8019305000433880541b3950701
            33e5a5003335a00033e5a600130800006ff09ffa33e5a7003335a0006ff0
            1fff130719001377f77f9306100063cae608b3e6a7003367c30063140906
            639e06006302071c930703001305060013070000938408006ff09fd66300
            0704b306c540b335d500338767403307b7409315870063dc05003305a640
            b307f3403336a600b387c7406ff09ffc33e5e600630a050c930707001385
            0600130700006ff01fd2639c060063080716930703001305060093840800
            6ff09fb1e30a07b06ff05fd3b309c5403384674033383501330404411317
            840063520708b309a6403304f340b33736013304f44093840800630e0406
            13050400ef10d04d130785ff9307f00163cce70693070002b387e7403314
            e400b3d7f90033e487003395e9006340270b33072741930717009306f001
            63cef604130700023307f7403356f500b316e4003315e500b3e6c6003335
            a00033e5a600b357f4006ff05ff433e58900e31805f8930700006f00800a
            13850900ef105046130505026ff05ff8130485fd33948900130500006ff0
            9ff9130717fe130600023357e400930600006388c70093060004b386f640
            b316d4003365d5003335a0003365a700930700006ff01feeb70780ff9387
            f7ff3307e940b377f4006ff01fbf93070300130506006ff01fec93070300
            130506006ff09f9e93070000130500001307f07f6ff05f8c930700009384
            08006ff09f8b9307000013050000130700006ff0dfbe13050000b7074000
            6ff0dfbd93070000130500006ff01f8b130101fd23248102232291022328
            610113040500130b0500b704100013d5450123202103232e310123267101
            9384f4ff23261102232c4101232a51011375f57f930b060093890600b3f4
            b40013d9f5016304050a9307f07f6304f51093943400b7068000b3e4d400
            935adb01b3ea9a0013143b00130a15c0130b000013d54901b70410009384
            f4ff1375f57fb3f43401938f0b0093d9f901630005109307f07f6300f516
            b707800093943400b3e4f40093d7db01b3e79700939f3b00130515c01307
            000093162b00b3e6e6009386f6ff9305e000334639013305aa4063eed514
            b7450060939626009385852cb386b60083a6060067800600b3ea6401638e
            0a066380040413850400ef10d029930755ff1307c001634ef702930ad001
            130485ffb38afa40b3948400b35a5b01b3ea9a0033148b00130ad0c0330a
            aa406ff0dff313050b00ef101026130505026ff01ffc930485fdb31a9b00
            130400006ff09ffdb3ea640163820a02938a0400130af07f130b30006ff0
            9ff013040000130a0000130b10006ff09fef13040000130af07f130b2000
            6ff09feeb3e77401638e07066380040413850400ef10d01f130755ff9307
            c00163cee7029307d001930f85ffb387e740b394f401b3d7fb00b3e79700
            b39ffb011306d0c03305a6406ff05fee13850b00ef10101c130505026ff0
            1ffc930785fdb397fb00930f00006ff09ffdb3e774016382070293870400
            1305f07f130730006ff01feb930f000013050000130710006ff01fea930f
            00001305f07f130720006ff01fe963e657016390fa36636ef4359395fa01
            935614001317f40193da1a0033e4d5009397870013d88f013368f800935e
            0801b3d5da03131e0801135e0e019356040193988f00b3f4da03938f0500
            b307be0293940401b3e6960063fef600b3860601938ff5ff63e8060163f6
            f600938fe5ffb3860601b386f64033d3d6031314040113540401b3f6d603
            93070300b3056e0293960601b366d40063feb600b38606019307f3ff63e8
            060163f6b6009307e3ffb38606013384b640939f0f01b7050100b3efff00
            1383f5ff93d60f01b3f76f0013df080133f36800b3836702b3846602b307
            ff02b382e603b386970093d70301b387d70063f49700b382b20093d60701
            b3865600b70201009382f2ffb3f5570093950501b3f35300b38575006368
            d40093870f006314d4046372b70433071701b3321701b382020133045400
            9387ffff6366880063148802636217036366d400639e8600637cb7003307
            17019387efffb33f1701b38f0f013304f401b305b7403304d4403337b700
            3304e440930ff0ff63048812b352d40393d605013374d40313870200b30f
            5e021314040133e48600637ef401330404011387f2ff636804016376f401
            1387e2ff330404013304f441b356d4039395050193d505013374d403330e
            de021314040133e4850093850600637ec401330404019385f6ff63680401
            6376c4019385e6ff3304040113170701b365b70013970501135707013304
            c44113de0501b30e670233036e02330ecf03330fef0213d70e01330f6f00
            3307e70163766700b7060100330ede00135307013303c301370e0100130e
            feffb376c70193960601b3fece01b386d60163686400938f050063106404
            6380060433048800938ff5ff63640403636664006314640263f0d8021397
            1800b338170133880801938fe5ff33040401930807006314640063841601
            93ef1f009306f53f635ad01013f77f006300070213f7ff0093054000630a
            b70093854f00b3bff501b387f701938f050013977700635a0700370700ff
            1307f7ffb3f7e700930605401307e07f634ad7181397d70193df3f003367
            f70193d73700b70510009385f5ffb3f7b700b70510809385f5ff93f6f67f
            93964601b3f7b7008320c102032481021316f601b3e7d700b3e6c7008324
            4102032901028329c101032a8101832a4101032b0101832bc10013050700
            9385060013010103678000001305f5ff130700006ff05fcb130609009387
            0a00930f040013070b00930620006300d710930630006302d70e93061000
            e31ad7f093070000130700006f004009138609006ff09ffdb7070800930f
            000013060000130730006ff05ffc93051000b385d54013078003e346b7fc
            1307f0016344b7061305e5413397a700b3d6bf003395af003367d7003335
            a0003367a700b3d7b70093767700638006029376f70093054000638ab600
            9306470033b7e600b387e700138706009396870063ca06069396d7011357
            370033e7e60093d73700930600006ff0dfec130710fe3307d74013080002
            33d7e70093060000638605011305e543b396a70033e5f6013335a0003367
            a700930700006ff0dff8b7070800130700009306f07f130600006ff05fe8
            93070000130700009306f07f6ff05fe79307000013070000930610006ff0
            5fe6130101fd23202103232a51013709100093da4501232e3101232c4101
            23286101232671011309f9ff23261102232481022322910293fafa7f130b
            0500930b0600138a06003379b90093d9f50163860a0a9307f07f6384fa10
            3704800013193900336989001354d5013364240193143500938a1ac0130b
            000013554a01370910001309f9ff1375f57f3379490113870b00135afa01
            630205109307f07f6302f516b7078000131939003369f90093d7db01b3e7
            270113973b00130515c09306000093152b00b3e5d5003385aa009385f5ff
            9308e00033c649011308150063eeb814374500609395250013054530b385
            a50083a50500678005003364a900630e04066300090413050900ef10003c
            930755ff1307c001634cf7021304d001930485ff3304f440331999003354
            8b0033642401b3149b00930ad0c0b38aaa406ff09ff3ef10803813050502
            6ff05ffc130485fd33148b00930400006ff0dffd3364a900630404029304
            050013040900930af07f130b30006ff05ff093040000930a0000130b1000
            6ff05fef93040000930af07f130b20006ff05feeb3677901638e07066300
            090413050900ef100032930655ff9307c00163ced7029307d001130785ff
            b387d7403319e900b3d7fb00b3e727013397eb009306d0c03385a6406ff0
            1fee13850b00ef10402e130505026ff01ffc930785fdb397fb0013070000
            6ff09ffdb367790163820702930709001305f07f930630006ff0dfea1307
            000013050000930610006ff0dfe9130700001305f07f930620006ff0dfe8
            b70f0100138fffff93d6040113530701b3f4e4013377e701b3089302b385
            e402b382e602338e580093d80501b388c801b38e660263f45800b38efe01
            13d90801b3f8e80193df0701b3f5e501b3f3e70193980801b388b800b387
            7602b3859302b3849f02338ef40093d40501b384c401b386f60363f6f400
            b7070100b386f60013df0401b7090100330fdf009386f9ffb3f4d400b3f5
            d50093570401939404013374d400b384b400b306e40233099900338ee702
            b30583023307f3023383c50193d50601b385650063f4c5013307370113d3
            0501b7090100b302e3001387f9ffb3f5e500b3f6e6003303740293950501
            b385d5003387770233848f02338eff023304e40093570301338487006374
            e400330e3e01b70701009387f7ffb376f4003373f30093960601b38e2e01
            b3866600b3b49e00b386e601b3879600b38ebe00b3b5be0033835700b30f
            b300b3b6e601b3b79700b3e7f6001354040133335300b3b5bf00b3878700
            b365b300b387b700b387c70113d77f0193979700b3e7e70013979e003367
            17013337e00093de7e0193969f003367d7013367d7009396770063da0610
            935617001377170033e7e6009396f7013367d70093d717009305f83f635e
            b00e93767700638006029376f70013054000638aa6009306470033b7e600
            b387e700138706009396770063da0600b70600ff9386f6ffb3f7d7009305
            08409306e07f63ceb616935637001397d7013367d70093d73700b7061000
            9386f6ffb3f7d70093f6f57fb70510809385f5ff93964601b3f7b7008320
            c102032481021316f601b3e7d700b3e6c70083244102032901028329c101
            032a8101832a4101032b0101832bc1001305070093850600130101036780
            000013860900930704001387040093060b0093052000638ab60e93053000
            638cb60c93051000e390b6f293070000130700006f00800813060a006ff0
            9ffd130805006ff05ff0130510003305b54093068003e3cca6fc9306f001
            63c4a6061308e841b3960701b355a70033170701b3e6b6003337e00033e7
            e600b3d7a70093767700638006029376f70093054000638ab60093064700
            33b7e600b387e700138706009396870063ca06069396d7011357370033e7
            e60093d73700930500006ff05fee930610feb386b64093080002b3d6d700
            93050000630615011308e843b395070133e7e5003337e00033e7e6009307
            00006ff0dff8b7070800130700009305f07f130600006ff0dfe993070000
            130700009305f07f6ff0dfe89307000013070000930510006ff0dfe73708
            10001308f8ff130101feb378b80013d745019357d5013378d80023282101
            1379f77f13973800b3e7e70093d8f60113d74601131838009356d601232a
            910033e30601232e1100232c8100232631011377f77f9306f07f93d4f501
            13153500131636006316d700b366c3006394060093c818003308e9406394
            983a6354001f631207143367c3006314070c9306f07f13070800631cd830
            b3e6a7006398063093070000130500009396870063de0600130717009306
            f07f630cd774b70680ff9386f6ffb3f7d7009396d7011355350033e5a600
            9306f07f93d73700631ed7003365f5009307000063080500b70708001305
            000093040000b70610009386f6ffb3f7d700b70610801377f77f9386f6ff
            13174701b3f7d700b3e7e700370700801347f7ff8320c101032481019395
            f401b3f7e70033e7b70083244101032901018329c1009305070013010102
            678000009305f8ff639c05043306c5003335a600b3876700b387a7001307
            1000130506009396870063dc0622130717009306f07fe300d7f2b70680ff
            9386f6ffb3f6d70093551500137515009397f60133e5a50033e5a70093d7
            16006f0040201307f07f6314e80233e7a700630007621307f07f6f00c01e
            1307f07fe306e9fe370780003363e3009305080013078003634eb7061307
            f0016342b704130700023307b740b356b6003318e3003316e6003368d800
            3336c0003368c800b355b3003308a800b385f500b337a800b387f5001305
            0800130709006ff0dff4130700023358b300930600006388e50093060004
            b385b640b316b30033e6c6003336c0003368c800930500006ff09ffb3368
            c300333800016ff01fff630a080e631e0908b3e6a700639206029307f07f
            6318f7003365c30093070000e30205e293070300130506006f00c0119306
            f0ff631cd8003305c500b38767003336c500b387c7006ff05fec9306f07f
            1348f8ffe302d7fc9306800363c606099306f00163ca060593050002b385
            0541b3580501b396b7003315b500b3e616013335a00033e5a60033d80701
            3305c50033086800b337c500b307f8006ff01fe79306f07fe30ad7f6b706
            800033080041b3e7d7006ff05ffa93080002b3d607019305000063081801
            9305000433880541b395070133e5a5003335a00033e5a600130800006ff0
            9ffa33e5a7003335a0006ff01fff130719009375f77f9306100063c8b608
            33e7a7006314090663080744b366c30013070000638806023306c5003335
            a600b3876700b387a700939687001305060063da0600370780ff1307f7ff
            b3f7e7001307100093767500e38c06ce9376f50013064000e386c6ce9306
            450033b5a600b387a700138506006ff09fcd630c073e3368c300e30008de
            b7074000130500001307f07f930400006ff09fcb9306f07fe304d7ca3306
            c50033886700b337a6003308f8001315f801135616003365c50093571800
            6ff01ff9635e000f6312070a3367c300e30007c69306f8ff639e06023306
            c5403335c500b3876740b387a740130710001305060093968700e3dc06f4
            370480001304f4ff33f4870093090500130907006f0000271307f07fe300
            e8d413078003634ad7081307f001634ed704130700023307d740b355d600
            3318e3003316e6003368b8003336c0003368c800b356d30033080541b386
            d740b3370501b387f64013050800130709006ff0dff81307f07fe304e9ce
            370780003363e300930608006ff0dff9130700023358d300130400006388
            e60013040004b306d4403314d3003366c4003336c0003368c80093060000
            6ff01ffa3368c300333800016ff01fff630a080e631e0908b3e6a7006390
            06029307f07f6316f7003365c3006308052a93070300130506006f00c00f
            9306f0ff631ed8003305a640b307f3403336a600b387c740938408006ff0
            dfee9306f07f1348f8ffe302d7fc9306800363c606099306f00163ca0605
            93050002b3850541335e0501b396b7003315b500b3e6c6013335a00033e5
            a60033d807013305a64033080341b337a600b307f8406ff09ffa9306f07f
            e30ad7f6b706800033080041b3e7d7006ff05ffa130e0002b3d607019305
            00006308c8019305000433880541b395070133e5a5003335a00033e5a600
            130800006ff09ffa33e5a7003335a0006ff01fff130719001377f77f9306
            100063cae608b3e6a7003367c30063140906639e06006302071c93070300
            1305060013070000938408006ff09fd663000704b306c540b335d5003387
            67403307b7409315870063dc05003305a640b307f3403336a600b387c740
            6ff09ffc33e5e600630a050c9307070013850600130700006ff01fd2639c
            0600630807169307030013050600938408006ff09fb1e30a07b06ff05fd3
            b309c5403384674033383501330404411317840063520708b309a6403304
            f340b33736013304f44093840800630e040613050400ef00d000130785ff
            9307f00163cce70693070002b387e7403314e400b3d7f90033e487003395
            e9006340270b33072741930717009306f00163cef604130700023307f740
            3356f500b316e4003315e500b3e6c6003335a00033e5a600b357f4006ff0
            5ff433e58900e31805f8930700006f00800a13850900ef00407913050502
            6ff05ff8130485fd33948900130500006ff09ff9130717fe130600023357
            e400930600006388c70093060004b386f640b316d4003365d5003335a000
            3365a700930700006ff01feeb70780ff9387f7ff3307e940b377f4006ff0
            1fbf93070300130506006ff01fec93070300130506006ff09f9e93070000
            130500001307f07f6ff05f8c93070000938408006ff09f8b930700001305
            0000130700006ff0dfbe13050000b70740006ff0dfbd9307000013050000
            6ff01f8b13d74501b70610009387f6ff1377f77f1306e03fb3f7b70093d5
            f501635ee6041306d041635ae600370500801345f5ff3385a50067800000
            b3e7d70093063043b386e6401306f0016340d6021307d7beb397e7003355
            d50033e5a700638005023305a04067800000130530413305e54033d5a700
            6ff09ffe130500006780000013d74501b7061000130605009387f6ff1377
            f77f1305e03fb3f7b70093d5f501635ae50413050000639805009305e041
            1305f0ff63d4e50067800000b3e7d70093063043b386e6409305f00163cc
            d5001307d7beb397e7003355d60033e5a70067800000130530413305e540
            33d5a700678000001305000067800000130101ff23261100232481002322
            91006302050a130405009354f501635405003304a04013050400ef00005b
            1307e0419307a0003307a74063c6a7069307b000b387a74013055501b357
            f4003314a400370510001305f5ffb7061080b3f7a7001377f77f9386f6ff
            13174701b3f7d700b3e7e700370700801347f7ff130504008320c1000324
            81009394f401b3f7e70033e7970093050700832441001301010167800000
            130555ffb317a400130400006ff01ffa9307000013040000130700009304
            00006ff0dff8370780001307f7ff935675013378a70013d675019357f501
            93f6f60f1305f00f3377b7001376f60f93d5f5016398a60013052000630e
            0806678000006318a60013052000630e0706678000006394060613351800
            6314060063060704631c05006394b700635ed60013051000639607006780
            0000e39e05fe1305f0ff6780000063dac6001305f0ffe38407fe13051000
            67800000e36a07fd13050000e364e8fe6ff01ffd13050000e30408fc6ff0
            dffbe308d6f8e31606fae30807fa6ff05ffa13351800e38c06f86ff09ff9
            130101fe232a910023282101b70480001359750123263101232251019384
            f4ff232e1100232c8100232441011379f90f938a0500b3f4a4009359f501
            630809089307f00f6304f90a93943400b7070004b3e4f400130919f8130a
            000013d57a01370480001304f4ff1375f50f3374540193dafa01630c0508
            9307f00f6308f50a13143400b70700043364f400130515f8930600009317
            2a00b3e7d7003305a9009387f7ff1307e00033c6590113081500636ef708
            374700609397270013070734b387e70083a7070067800700638a04021385
            0400ef0000379307b5ff1309a0f8b394f4003309a9406ff01ff71309f00f
            130a2000e38404f6130a30006ff01ff613090000130a10006ff05ff5630a
            040213050400ef0000339307b5ff3314f4009307a0f83385a7406ff09ff6
            1305f00f93062000e30004f6930630006ff09ff513050000930610006ff0
            dff4b70701001383f7ff13d7040193560401b3f4640033746400b3888402
            b30587023304d702b386960293d40801b386b600b384d40063f4b4003304
            f400b3f7640093970701b3f86800b38717011397670093d404013337e000
            93d7a70133848400b367f700131464003364f4009317440063de070c9357
            14001374140033e487001307f8076358e00c93777400638a07009377f400
            930640006384d700130444009317440063da0700b70700f89387f7ff3374
            f400130708089307e00f63cce70e935734006f0000031386090013840400
            93060a0093072000638ef60c930730006382f60c93051000930700001307
            0000e398b6f8370480001304f4ff37058080b3f787001305f5ff8320c101
            032481011377f70fb3f7a700131777011315f601b3e7e700832441010329
            01018329c100032a8100832a410033e5a700130101026780000013860a00
            6ff0dff8130805006ff01ff393071000b387e7401307b0016340f7061308
            e809b357f400331404013334800033e4870093777400638a07009377f400
            130740006384e700130444009317540063ca070293573400130700006ff0
            5ff5b70740001307f00f130600006ff05ff4930700001307f00f6ff09ff3
            930700006ff09ffd93070000130710006ff05ff2130101ff232611002324
            81002322910063020510130405009354f501635405003304a04013050400
            ef00c00f9307e009b387a740130760096340f706130780006356a7001305
            85ff3314a400370580001305f5ff93f7f70f3374a40013957701b7078080
            9387f7ff3374f400b70700803364a40093c7f7ff1395f4013374f4003365
            a4008320c10003248100832441001301010167800000130790096350f702
            130750003307a7409306b5013357e4003314d40033348000336487001307
            50006356a7001307b5ff3314e400370700fc1307f7ff937674003377e400
            638a06001374f400930640006304d400130747009316570063dc0600b707
            00fc9387f7ff3377f7009307f009b387a740135437006ff0dff313040000
            93070000930400006ff0dff2b7070100637af5029307f00fb3b7a7009397
            3700130700023307f740b357f500374500601305c537b387a70003c50700
            3305a740678000003707000193070001e36ae5fc930780016ff0dffc1301
            01ff93050000232481002326110013040500ef00c00fb707008003a50700
            8327c50363840700e780070013050400ef0090181308f00013070500637e
            c8029377f7006390070a63920508937606ff1376f600b386e6002320b700
            2322b7002324b7002326b70013070701e366d7fe6314060067800000b306
            c8409396260097020000b38656006780c6002307b700a306b7002306b700
            a305b7002305b700a304b7002304b700a303b7002303b700a302b7002302
            b700a301b7002301b700a300b7002300b7006780000093f5f50f93968500
            b3e5d50093960501b3e5d5006ff0dff69396270097020000b38656009382
            0000e78006fa93800200938707ff3307f7403306f600e378c8f66ff0dff3
            130101fdb7070080232e310183a90700232c4101232a5101232861012326
            110223248102232291022320210323267101930a0500138a0500130b1000
            83a48914638c040003a444001309f4ff1314240033848400635809028320
            c1020324810283244102032901028329c101032a8101832a4101032b0101
            832bc1001301010367800000630c0a0083274410638847011309f9ff1304
            c4ff6ff0dffb03a74400832744001307f7ff631c270323a22401e38007fe
            83a6841833172b0183ab4400b376d70063920602e780070003a7440083a7
            8914e31477f7e38cf4fa6ff01ff6232204006ff0dffc83a6c41883254408
            3377d7006318070013850a00e78007006ff0dffc13850500e78007006ff0
            1ffc130101ff232291009384050093050000232611002324810013040500
            ef00102b9385040013050400ef00903f930405009305000013050400ef00
            d0338320c1000324810013f5f40f832441001301010167800000130101ff
            23248100370400802322910023261100232021011304c44b034904009304
            0500630809089305b005eff01ff8b70700809387d74b03c6070037070080
            130747643307c70003490700034704009306160093f6f60f1307f7ff1315
            05012300e4002380d70013070001135505016394e6002380070013158500
            131405019305090013850400eff05ff2135404013365a4008320c1000324
            81001315050183244100032901001355050113010101678000009305a005
            eff05fef13150501135505016ff05ffb130101feb7b70000232c81002324
            410137040100375a0000232821012326310123225101232e1100232a9100
            930a05001304f4ff938957a5138967a5130aaa5a13850a00eff05fef9304
            05006318050063160406130500006f008001631c3503631e3405b7070080
            23ac074a130510008320c1010324810183244101032901018329c100032a
            8100832a41001301010267800000631c250163123403b707008013071000
            23ace74a6ff05ffc631845019305000013850a00eff0dfe2138404006ff0
            1ff8130101fb23202105370900808327094c23229104232a510323229103
            2326110423248104232e3103232c41032328610323267103232481032320
            a103232eb101231006002311060023120600231306002314060023150600
            930a0500938c0500930406001309094c63980704eff01fed130400006314
            0504130504008320c1040324810483244104032901048329c103032a8103
            832a4103032b0103832bc102032c8102832c4102032d0102832dc1011301
            0105678000002320090037ba0000130b5aa513040000130a6aa5b70b0080
            130d5000930d6000e37094fb93071008e3ec87f813850a00eff0dfd81307
            0500631c6501930710002320f900b707008023ac074a6ff05ff7631c4501
            93071000370700802320f900232cf74a6ff0dff5e30c05f4938604009307
            00009309000003a68b4b138c8b4b631806026396a903239504006398e700
            13041400131404011354040113850a00eff0dfd16318650523200c006ff0
            5ff713850a002326f1002324e1002322d100eff0dfcf8327c10083264100
            93891900b307f500939707012390a60093f9f90f93d70701938626000327
            8100e396b9f96ff0dff9e31645ed930710002320fc006ff01ff2b7470060
            83a5871e130101fe232c8100232e110023260100eff0cfd9130405000325
            c100eff01f8b93050400eff0cfcb634a05008320c1010324810113010102
            678000008327c100938717002326f1006ff01ffdb7470060130101fe9387
            c71e2322f10037470060b7070080b7060080232e11002324010023260100
            93870700130707489386860063fcf604b707008037470060b70600809387
            0701130707499386864363f8f604b7070080370700809387874b1307074d
            6378f704b70700803707008093870750130707506374f704930541001305
            1000ef108035eff09f9603260700938747001307470023aec7fe6ff09ff9
            03260700938747001307470023aec7fe6ff01ffa23a00700938747006ff0
            9ffa23a00700938747006ff01ffb130101ff232481002326110013040008
            f3374430ef009073b7c7004403a887ff83a8c7fff32740f1b70600809386
            864c03a7060083a546003307e80033350701130607003717000013070780
            b387e7009397370037070044b307f700b385b800b306b50023a0c70023a2
            d700732444308320c100032481001301010167800000130101ff23261100
            2324810023229100f32740f193870720370400409397c700b307f40083a4
            4700b70700809387874313972400b387e70083a70700e7800700f32740f1
            938707209397c700b307f40023a2970093071000631cf502f32740f19397
            570013d75400b387e700939727003304f400b72700003304f40083270400
            331595001345f5ff3375f5002320a4008320c10003248100832441001301
            010167800000130101ff23261100ef00000a8320c100b707004423a00700
            1301010167800000130101ff23248100232611002322910013040500635c
            0504b707008093c7f7ffb377f5001307b000938405006390e702eff0dff0
            8320c1000324810013850400832441001301010167800000130770006396
            e700eff09fe66ff0dffd130730006396e700eff0dff76ff0dffcb7450060
            130650009385451f13051000ef00001213051400ef004011130101ff1305
            a00023261100ef0040101305000067800000130500006780000013050000
            678000001305000067800000130500006780000013050000678000001305
            000067800000130500006780000013050000678000001305000067800000
            130500006780000013050000678000001305000067800000130500006780
            000013050000678000001305000067800000130500006780000013050000
            678000001305000067800000130500006780000013050000678000001305
            000067800000130500006780000013050000678000001305000067800000
            130500006780000013050000678000001305000067800000130500006780
            00001305000067800000130500006780000013050000678000006f000000
            b70700801307900023a0e7501305f0ff678000002320b500678000000325
            05006780000083270500b396b600b3c6f600b3f6c600b3c6f6002320d500
            678000009395050193d505012310b50067800000035505006780000093f5
            f50f2300b50067800000034505006780000083470500b396b60093f7f70f
            b3c6d70033f6c600b3c7c70093f7f70f2300f50067800000034505003375
            a6003355b5001375f50f67800000130101fd232611022324810223229102
            23202103232e310193848500138405002320b50093890600930510009306
            00001385040013090600130620002326e100eff01ff49306000013061000
            9305000013850400eff0dff29305100013050401eff01ff1938509001305
            c400eff05ff00327c1001305040093050700eff05fef9306000063040900
            93061000032481028320c102032901028329c10113850400832441021306
            400093052000130101036ff01fed130101ff232481001304050003250500
            93060000130610009305000023261100eff05fef03250400930530001305
            c501eff01fed032504009305f00f13054500eff01fec0325040003248100
            8320c100930610001306100093050000130101016ff05feb130101ff2324
            810023261100232291002320210113040500630e050893840500638a0508
            13090600930500001306800413054500eff08fc89307f9ff939707012320
            940093d707011307f0016362f70a23122405930600001306100093050000
            13850400eff0dfe4032504009305000013054502eff09fe2032504009305
            30001305c501eff09fe1032504009305f00f13054500eff09fe003250400
            9305000013058501eff09fdf0325040093053000eff0dfde032504009305
            100013054502eff0dfdd0325040013054502eff0dfdd0325040003248100
            8320c100832441000329010013050502130101016ff0dfdb930710002312
            f4046ff0dff5630a0506130101ff23248100130405000325050093060000
            130610009305000023261100eff01fd90325040023240404930530001305
            c501eff09fd6032504009305f00f13054500eff09fd50325040093050000
            13058501eff09fd403250400032481008320c10093053000130101016ff0
            1fd3678000006302050a9307700063eeb708130101ff2324810013040500
            032505002322910013062000938405009305100023261100eff01fd3630e
            050403250400130600019305400013050502eff09fd1930710006316f500
            13050400eff01fdd0325040013054502eff01fcd83270400930510000324
            8100b39595008320c10083244100b3e5a50013854702130101016ff0dfc9
            8320c10003248100832441001301010167800000678000006304050a9307
            700063e0b70a130101ff2324810013040500032505002322910013062000
            938405009305100023261100eff09fc86300050603250400130600019305
            400013050502eff01fc7930710006316f50013050400eff09fd203250400
            13054502eff09fc2832704009305100003248100b39595008320c1008324
            410093c5f5ffb3f5a50013854702130101016ff01fbf8320c10003248100
            83244100130101016780000067800000130101fe232e1100232c8100232a
            910023260100630605061304050003250500938405001306200093051000
            eff01fbe6308050403250400930530001305c501eff05fb9032504009385
            040013058502eff01fb403250400130620009305100013050502eff09fba
            93071000e314f5fe0325040013058500eff01fb22326a1008320c1010324
            81010325c100832441011301010267800000130101fe232e1100232c8100
            13040500138505002320b40013058500930500002324d1002326c100eff0
            5fb103250400930500001305c500eff05fb00326c1000325040093050600
            eff01fab83268100032504009385060013054500eff0dfa9032504009305
            000013050501eff0dfa8032504009305000013058501eff0dfa703250400
            9305000013050502eff0dfa6032504009305000013058502eff0dfa50325
            04009305000013050503eff0dfa4032504009305000013058503eff0dfa3
            032504009305000013050504eff0dfa2032504009305000013058504eff0
            dfa1032504009305000013050505eff0dfa0032504009305000013058505
            eff0df9f032504009305000013050506eff0df9e03250400930500001305
            8506eff0df9d032504009305000013050507eff0df9c0325040093050000
            13058507eff0df9b032504009305000013050508eff0df9a032504000324
            81018320c1019305000013058508130101026ff01f991387f5ff9307f000
            63eee706b74700609387c71f130101ffb387b700232481002322910003c4
            07002326110093078000930405000325050063e8b70213058500eff0df99
            b365a40003a5040093f5f50f13058500032481008320c100832441001301
            01016ff0df961305c500eff01f97b365a40003a5040093f5f50f1305c500
            6ff05ffd678000001387f5ff9307f00063eee706b74700609387c71f1301
            01ffb387b7002324810003c4070023229100232611001344f4ff93078000
            930405001374f40f0325050063e6b70213058500eff0df9083a70400b375
            850013858700032481008320c10083244100130101016ff01f8e1305c500
            eff05f8e83a70400b37585001385c7006ff09ffd678000009386f5ff1307
            f000636cd708631406006ff09ff6130101fe374700602326310113074725
            9399250033073701232c8100832707001304050003250500232a91009384
            05003305f50093050000232e11002328210113090600eff05f82b7470060
            93870721b38737010325040083a70700930509003305f500eff05f801305
            0400032481018320c101032901018329c100938504008324410113010102
            6ff05fe567800000130101ff232481002322910023202101232611001304
            05002320b400938405002322c50013890508138504009305000093844400
            eff08ffee39824ff8327440013071000638ae7026384070613072000639a
            e70a03250400032481008320c10083244100032901009305f0ff13050508
            130101016ff04ff603250400b70401009385f4ff13050508eff0cff70325
            0400032481008320c100032901009385f4ff832441001305450813010101
            6ff08ff5032504009305f00f13050508eff00ff6032504009305f00f1305
            4508eff00ff5032504009305f00f13058508eff00ff40325040003248100
            8320c10083244100032901009305f00f1305c508130101016ff0cff18320
            c10003248100832441000329010013010101678000001307f001636cb700
            0325050093972500930506003385a7006ff04fea67800000832745001301
            01ff2324810023229100232611001307100013040500938405006386e702
            638e0704130720006396e70a03250500032481008320c100832441001305
            050a130101016ff04fe5032505009395050193d505011305050aeff0cfe6
            03250400032481008320c10093d50401832441001305450a130101016ff0
            cfe40325050093f5f50f1305050aeff04fe50325040093d5840093f5f50f
            1305450aeff00fe40325040093d5040193f5f50f1305850aeff0cfe20325
            0400032481008320c10093d58401832441001305c50a130101016ff0cfe0
            8320c10003248100832441001301010167800000130101fe232a91008324
            4500232c8100232821012326310123225101232e11002324410113041000
            930a05001389050093090600638e84046382040c930720006392f4120325
            0500331424011305050aeff08fd6b365a400639609001344f4ffb375a400
            03a50a00032481018320c10183244101032901018329c100032a8100832a
            41001305050a130101026ff04fd213da450083270500131a2a00130a0a0a
            1374f900330afa00b394840013050a0093940401eff08fd393d40441b3e5
            a4006396090093c5f4ffb3f5a500032481018320c1018324410103290101
            8329c100832a410013050a00032a81009395050193d50501130101026ff0
            4fce93d4350083270500939424009384040a13797900b384f40033142401
            1385040013148401eff00fce13548441b365a400639609009345f4ffb3f5
            a500032481018320c101032901018329c100032a8100832a410013850400
            8324410193f5f50f130101026ff04fc98320c10103248101832441010329
            01018329c100032a8100832a41001301010267800000130101ff23248100
            370400801305c458130610009305500023261100eff0dfe51305c4581306
            100093056000eff0dfe437040080130544591306600493051000eff0dfb6
            130544591306600493052000eff0dfb5130544591306600493053000eff0
            dfb413054459032481008320c1001306600493054000130101016ff01fb3
            67800000130101ff2324810037040080930640061306003213054459b785
            00702326110023229100eff09f881305445993051000eff09f9e13054459
            93052000eff0df9d1305445993053000eff01f9d1305445993054000eff0
            5f9c130544591306000093051000eff05fac130544591306000093052000
            eff05fab130544591306000093053000eff05faa13054459130600009305
            4000eff05fa937040080b7240000938604711306400813050464b7250070
            eff0cfff1305046493051000eff0df951305046493052000eff01f951305
            04641306e02e93051000eff01fa5130504641306e02e9305200037040080
            eff0dfa3130620001305c458b7550070eff01fad1305c45893050000eff0
            1fc01305c4581306500093055000eff01fbd1305c4581306500093056000
            eff01fbc1305c4581306500093057000eff01fbb1305c458130650009305
            3000eff01fba1305c4581306000093053000eff0dfc91305c45813062000
            93054000eff01fb837050080138784b59306800013060000b73500701305
            8558eff00fab3704008013068000b76500701305045aeff04fbb1305045a
            eff08fca370400801305045f13068000b7950070eff08fb91305045f0324
            81008320c10083244100130101016ff0cfc7130101ff2326110023248100
            93071000631cf5063704008013061000930550001305c458eff01fc01306
            00001305c45893056000eff01fbf37040080130544591306400693051000
            eff01f91130544591306400693052000eff01f9013054459130640069305
            3000eff01f8f13054459032481008320c100130640069305400013010101
            6ff05f8d631005023704008013060000930550001305c458eff09fb81306
            10006ff09ff88320c100032481001301010167800000130101ff23248100
            3704008013054459130600009305100023261100eff05f88130544591306
            000093052000eff05f87130544591306000093053000eff05f8613054459
            032481008320c1001306000093054000130101016ff09f84930710006314
            f5006ff01fc963120508130101ff23248100370400801305c45813060000
            9305500023261100eff05fae1305c4581306000093056000eff05fad3704
            0080130544591306600493051000eff04fff130544591306600493052000
            eff04ffe130544591306600493053000eff04ffd13054459032481008320
            c1001306600493054000130101016ff08ffb67800000130101ff23248100
            37040080232291001306050093840500130504649305100023261100eff0
            cff813050464032481008320c10013860400832441009305200013010101
            6ff0cff6130101fb2324810423229104232c4103232a5103232861032326
            7103232481032326110423202105232e31032322a1032320b103eff0dfc0
            b747006003a8472a83a7072a374c0060232201012320f100b747006003a8
            c72a83a7872a032b8c2b832bcc2b9304e02e1304e02e130a00002324f100
            23260101b74a00603705008013064101930520001305055fefe09f980357
            410193071000631ef71e035561019307e01363e8a71eefd09ff403260100
            83264100efd04fe2efd0dfe39309050013050400efd0dff2130d05001385
            0900938d0500efd0dff1032681008326c10003598101efd0cf81b7470060
            03a6072b83a6472befd0cf8013060b0093860b00efc05f92130605009386
            050013050d0093850d00efd04fdcefd0dfe5130405001315050113550501
            9307204e63f4a7001304204e13170401135707019307a00f6374f7001304
            a00f1305c9f7efd05feab747006003a6072c83a6472c1314040113540401
            efc0dff903a60a2b83a64a2befc01ff903268c2b8326cc2befc09f8a130d
            050013850400938d0500efd05fe6130605009386050013050d0093850d00
            efc0cf87efd01fdd9304050013150501135505019307c04463f4a7009304
            c0441397040113570701930760276374f70093046027939404019389e901
            9307c00393d4040163ec3701130919f813190901135909019307a00063fa
            27019385040013050400eff05fdb6ff05fe7930724d16344f00663840700
            130a10000357c1010359a101938727033309e90237b7ffff1307875c3309
            e90013074006637cf70013050a00eff0dfbcb747006003a58729efe01f98
            b71700009387873863d2270313050000eff01fccb747006003a5c729efe0
            1f966ff09fe0130a00006ff01ffab7f7ffff938707066356f900eff01f93
            6ff09ffdeff05fc36ff05fde0080934568656c6c6f000000747261700a00
            000000010204081020408001020408102040800000000000000014000000
            1c000000240000002c000000340000003c000000440000004c0000005400
            00005c000000640000006c000000740000007c000000840000008c000000
            000000001000000018000000200000002800000030000000380000004000
            000048000000500000005800000060000000680000007000000078000000
            80000000880000000000a041000070410000000000f06340b81e85eb51b8
            9e3f000000000000494000000000000022409a9999999999a93f2c100060
            400f00604c0f0060400f006018100060400f00604c0f00602c1000602c10
            0060181000604c0f0060180f0060180f0060180f0060540f00600c150060
            0c150060301500600015006000150060f01500603015006000150060f015
            00600015006030150060fc140060fc140060fc140060f0150060f0220060
            f022006060230060e8220060e8220060c023006060230060e8220060c023
            0060e822006060230060e4220060e4220060e4220060c023006000010202
            030303030404040404040404050505050505050505050505050505050606
            060606060606060606060606060606060606060606060606060606060606
            070707070707070707070707070707070707070707070707070707070707
            070707070707070707070707070707070707070707070707070707070707
            070707070808080808080808080808080808080808080808080808080808
            080808080808080808080808080808080808080808080808080808080808
            080808080808080808080808080808080808080808080808080808080808
            080808080808080808080808080808080808080808080808080808080808
            080808080808080808080808430000001000008010000080000000000000
            000000000000fc02008064030080cc030080000000000000000000000000
            0000000000000000000000000000000000000000000000007c4400600000
            000000000000000000000000000000000000000000000000000000000000
            000000000000000000000000000000000000000000000000000000000000
            000000000000000000000000000000000000000000000000000000000000
            000000000000000000000000000000000000000001000000000000000e33
            cdab34126de6ecde05000b00000000000000000000000000000000000000
            000000000000000000000000000000000000000000000000000000000000
            000000000000000000000000000000000000000000000000000000000000
            000000000000000000000000000000000000000000000000000000000000
            000000000000000000000000000000000000000000000000000000000000
            000000000000000000000000000000000000000000000000000000000000
            000000000000000000000000000000000000000000000000000000000000
            000000000000000000000000000000000000000000000000000000000000
            000000000000000000000000000000000000000000000000000000000000
            000000000000000000000000000000000000000000000000000000000000
            000000000000000000000000000000000000000000000000000000000000
            000000000000000000000000000000000000000000000000000000000000
            000000000000000000000000000000000000000000000000000000000000
            000000000000000000000000000000000000000000000000000000000000
            000000000000000000000000000000000000000000000000000000000000
            000000000000000000000000000000000000000000000000000000000000
            000000000000000000000000000000000000000000000000000000000000
            000000000000000000000000000000000000000000000000000000000000
            000000000000000000000000000000000000000000000000000000000000
            000000000000000000000000000000000000000000000000000000000000
            000000000000000000000000000000000000000000000000000000000000
            000000000000000000000000000000000000000000000000000000000000
            000000000000000000000000000000000000000000000000000000000000
            000000000000000000000000000000000000000000000000000000000000
            000000000000000000000000000000000000000000000000000000000000
            000000000000000000000000000000000000000000000000000000000000
            000000000000000000000000000000000000000000000000000000000000
            000000000000000000000000000000000000000000000000000000000000
            000000000000000000000000000000000000000000000000000000000000
            00000000000000000000000000000000182e0060202e0060282e0060302e
            0060382e0060402e0060482e0060502e0060582e0060602e0060682e0060
            702e0060782e0060802e0060882e0060902e0060982e0060a02e0060a82e
            0060b02e0060b82e0060c02e0060c82e0060d02e0060d82e0060e02e0060
            e82e0060f02e0060f82e0060002f0060082f0060102f0060
            <crc>
                20a1
            </crc>
        </region>
        <region name="M3_BOOT" address="0x078000" retrieveAddressFromFile="false" size="3456" format="HEX" type="Data Storage" wordSize="8" numberWords="3456" memFile="C:\Users\REN\Documents\GitHub\Microsemi_SmartFusion2_RISCV_ObjectTracker\SF2_CoreRISCV_AXI4_ObjectTracker\hex\M3-Disable_M2S025-FutureCreativeBoard-DDR.hex" memType="INTELHEX" memFileTimeStamp="" clientType="public" program="true">
            <read_protect/>
            00000120910100007f030000810300008303000085030000870300000000
            0000000000000000000000000000890300008b030000000000008d030000
            8f03000091030000930300009503000097030000990300009b0300009d03
            00009f030000a1030000a3030000a5030000a7030000a9030000ab030000
            ad030000af030000b1030000b3030000b5030000b7030000b9030000bb03
            0000bd030000bf030000c1030000c3030000c5030000c7030000c9030000
            cb030000cd030000cf030000d1030000d3030000d5030000d7030000d903
            0000db030000dd030000df030000e1030000e3030000e5030000e7030000
            e9030000eb030000ed030000ef030000f1030000f3030000f5030000f703
            0000f9030000fb030000fd030000ff030000010400000304000005040000
            07040000090400000b0400000d0400000f04000011040000130400001504
            000017040000190400001b0400001d0400001f0400002104000023040000
            2504000027040000290400002b0400002d0400002f040000310400003304
            000000000000000000004ff0000bdff8be020068dff8b612096801f00301
            00f01c00142801d14bf0020b002901d04bf0010bbbf1000f05d0a748a749
            dff8722200f09ff8a64880470bf0020abaf1000f0cd0dff86e02dff86e12
            02680b680fb44ff000024ff0ff0302600b609d4800220123022808d1dff8
            3e120a60dff842120a60dff836120b60012808d1dff82e120a60dff82a12
            0a60dff81e120b609148002809d191489149924a00f032f891489249924a
            00f02df892489249934a00f028f892489349dff8e62100f05af8bbf1000f
            12d090489049dff8da2100f051f80bf0020abaf1000f07d00fbc02600b60
            00bfaff30080aff30080dff820020ff2030e00474ff000004ff00001dff8
            14f2fee72de9f841884225d0b2eb010200d5fee740ea010313f0030302d0
            00f01df819e04ff0000390461211f7d09a421cbff0c8f0c103f10103f8d1
            08f00f08b8f1000f08d004780c7000f1010001f10101b8f10108f6d1bde8
            f88108b54ff0000303780b7000f1010001f10101013af7d108bd884237d0
            00f00306002e14d04ff00405a5eb06044ff0080707fb06f8914669fa08f9
            002c07d080f8009069fa07f900f10100013cf5e74ff000060f46091a8846
            0911914614461546b14206d018bfa0e8340206f10106b142f8d108f00f08
            b8f1000f07d002704fea322200f10100b8f10108f4e77047fee7fee7fee7
            fee7fee7fee7fee7fee7fee7fee7fee7fee7fee7fee7fee7fee7fee7fee7
            fee7fee7fee7fee7fee7fee7fee7fee7fee7fee7fee7fee7fee7fee7fee7
            fee7fee7fee7fee7fee7fee7fee7fee7fee7fee7fee7fee7fee7fee7fee7
            fee7fee7fee7fee7fee7fee7fee7fee7fee7fee7fee7fee7fee7fee7fee7
            fee7fee7fee7fee7fee7fee7fee7fee7fee7fee7fee7fee7fee7fee7fee7
            fee7fee7fee7fee7fee7fee7fee7fee7fee7fee7fee7fee7fee770470000
            0000a2a2a2a2008003400880034010800340308003403480034038800340
            18080240000000f0002000000120ad040000000000000100000000000060
            0000000090010000c0060060c00600005009000050090060000000203004
            002030040020500400205004002000f00020bd070000790700004ff60202
            38b53a4bd3f84c11914262d0384a536943f400735361354b996861b1fff7
            b2ff324a936c23f480339364324b1a6842f003021a6049e0304b30481b68
            30f8112043f82120013139292c4af7d102f1700003f5077103f5487430f8
            025f41f8045ba142f9d1b2f8f410c3f80014b2f8f610c3f80414b2f8f810
            c3f80814b2f8fa10c3f80c14b2f8fc10c3f81014b2f8fe10c3f81414b2f8
            0011c3f81814b2f80211c3f81c14b2f80411c3f84014b2f80611b2f80821
            c3f84414c3f8482401221a60d3f8e420002afbd0a8e75a68d207fcd538bd
            d3f8982042f48072c3f89820d3f8982022f08062c3f898208fe700800340
            00ed00e000200240bc060000b00500000000000008119002020000000100
            9f0900003333ffff7777ff0f010000420800520944000000000080026500
            e5010200280078012300330d040000000033000000000c04000000000000
            020000008020f8800700f880070000020000000004000300400000000000
            000000000903010000000000000080000000000003000000000000000000
            00000b000000000000000000800004200001080000000000000000000000
            010000000000000000000000504001051450000008001800000005000000
            000000000000000000000000000050000105105000000000000000000000
            000043000000030001000100000000000000010000000000000000000000
            00000000000000000000000000000008024010b5054c237833b9044b13b1
            0448aff300800123237010bd300400200000000020090000084b10b51bb1
            08490848aff300800848036803b910bd074b002bfbd0bde81040184700bf
            0000000034040020200900000000002000000000144b10b59a6c144c42f4
            80129a649a6c012042f0f0729a6400221357013203f01f015b099b0003f1
            604300fa01f103f56143202ac3f88010c3f88011edd1054b9a6c22f0f072
            9a649a6c22f480129a6410bd00bf00800340f808000007b5fff7cfff0d4b
            4ff05532c3f8882072b630bf4ff0aa32c3f88820084a1168c9090191019a
            1ab1019a013a0192f9e7d3f88820d243c3f88820f2e70030014004000020
            70b50f4e0f4d761bb61018bf002405d0013455f8043b9847a642f9d10a4e
            0b4d00f0a0f8761bb61018bf002406d0013455f8043b9847a642f9d170bd
            70bd00bf38090000380900004009000038090000024b13b1024800f005b8
            7047000000002d080000002301461a46184600f014b838b5074d074c2c1b
            a41005d0013c55f8043d9847002cf9d1bde8384000f070b8440900004009
            00002de9f047254c064625688846d5f8484192469946c4b360681f2817dc
            411c76b104eb8003c3f888a0d4f88851012282401543022ec4f88851c3f8
            08911ed0831c6160002044f82380bde8f087144b03b34ff4c870aff30080
            0446d0b1d5f84831002784e888003846c5f848410121c4f88871c4f88c71
            002ee1d0d1e7d4f88c311a43c4f88c21dae705f5a674c5f84841c1e74ff0
            ff30bde8f08700bf1c0900000000000032333435363738393a3b3c3d3e3f
            404142434445464748494a4b4c4d4e4f50514300000008000020f8b500bf
            f8bc08bc9e467047f8b500bff8bc08bc9e4670470d080000e5060000c106
            000000000000000000000000000000000000c07af20400000000f4020020
            5c030020c403002000000000000000000000000000000000000000000000
            000000000000000000000000000018090000000000000000000000000000
            000000000000000000000000000000000000000000000000000000000000
            000000000000000000000000000000000000000000000000000000000000
            000000000000000000000000000000000000000000000000000000000000
            0000000000000000000001000000000000000e33cdab34126de6ecde0500
            0b0000000000000000000000000000000000000000000000000000000000
            000000000000000000000000000000000000000000000000000000000000
            000000000000000000000000000000000000000000000000000000000000
            000000000000000000000000000000000000000000000000000000000000
            000000000000000000000000000000000000000000000000000000000000
            000000000000000000000000000000000000000000000000000000000000
            000000000000000000000000000000000000000000000000000000000000
            000000000000000000000000000000000000000000000000000000000000
            000000000000000000000000000000000000000000000000000000000000
            000000000000000000000000000000000000000000000000000000000000
            000000000000000000000000000000000000000000000000000000000000
            000000000000000000000000000000000000000000000000000000000000
            000000000000000000000000000000000000000000000000000000000000
            000000000000000000000000000000000000000000000000000000000000
            000000000000000000000000000000000000000000000000000000000000
            000000000000000000000000000000000000000000000000000000000000
            000000000000000000000000000000000000000000000000000000000000
            000000000000000000000000000000000000000000000000000000000000
            000000000000000000000000000000000000000000000000000000000000
            000000000000000000000000000000000000000000000000000000000000
            000000000000000000000000000000000000000000000000000000000000
            000000000000000000000000000000000000000000000000000000000000
            000000000000000000000000000000000000000000000000000000000000
            000000000000000000000000000000000000000000000000000000000000
            000000000000000000000000000000000000000000000000000000000000
            000000000000000000000000000000000000000000000000000000000000
            000000000000000000000000000000000000000000000000000000000000
            000000000000000000000000000000000000000000000000000000000000
            000000000000000000000000000000000000000000000000000000000000
            000000000000
            <crc>
                2dfd
            </crc>
        </region>
    </nvm>
</Actel_Data_File>
